1235,1672
1235,1730
1235,1742
1235,1730
1235.1,1777
1235.1,1895
1235.1,2036
1235.1,2271
1235.1,2459
1235.2,2623
1235.2,2717
1235.2,2764
1235.2,2811
1235.2,2753
1235.3,2670
1235.3,2729
1235.3,2800
1235.3,2858
1235.3,2882
1235.4,2776
1235.4,2682
1235.4,2612
1235.4,2459
1235.4,2400
1235.5,2353
1235.5,2400
1235.5,2294
1235.5,2189
1235.5,2153
1235.6,2106
1235.6,2153
1235.6,2118
1235.6,2036
1235.6,1977
1235.7,1848
1235.7,1695
1235.7,1707
1235.7,1766
1235.7,1777
1235.8,1789
1235.8,1848
1235.8,1824
1235.8,1648
1235.8,1613
1235.9,1648
1235.9,1660
1235.9,1695
1235.9,1730
1235.9,1742
1236,1824
1236,1977
1236,2118
1236,2294
1236,2529
1236.1,2753
1236.1,2870
1236.1,2929
1236.1,2894
1236.1,2847
1236.2,2753
1236.2,2694
1236.2,2600
1236.2,2494
1236.2,2494
1236.3,2506
1236.3,2518
1236.3,2506
1236.3,2529
1236.3,2435
1236.4,2271
1236.4,2177
1236.4,2236
1236.4,2200
1236.4,2224
1236.5,2247
1236.5,2177
1236.5,2071
1236.5,1954
1236.5,1824
1236.6,1719
1236.6,1672
1236.6,1625
1236.6,1589
1236.6,1531
1236.7,1484
1236.7,1413
1236.7,1413
1236.7,1413
1236.7,1448
1236.8,1507
1236.8,1542
1236.8,1554
1236.8,1495
1236.8,1613
1236.9,1754
1236.9,1989
1236.9,2224
1236.9,2424
1236.9,2447
1237,2506
1237,2565
1237,2612
1237,2670
1237,2565
1237.1,2435
1237.1,2388
1237.1,2283
1237.1,2200
1237.1,2165
1237.2,2165
1237.2,2259
1237.2,2435
1237.2,2518
1237.2,2529
1237.3,2377
1237.3,2224
1237.3,2048
1237.3,2012
1237.3,2118
1237.4,2247
1237.4,2189
1237.4,2012
1237.4,1918
1237.4,1930
1237.5,2001
1237.5,2059
1237.5,1965
1237.5,1930
1237.5,1977
1237.6,1871
1237.6,1719
1237.6,1742
1237.6,1754
1237.6,1730
1237.7,1766
1237.7,1848
1237.7,1965
1237.7,2036
1237.7,2294
1237.8,2541
1237.8,2682
1237.8,2776
1237.8,2917
1237.8,2976
1237.9,2964
1237.9,2905
1237.9,2847
1237.9,2776
1237.9,2670
1238,2588
1238,2506
1238,2482
1238,2565
1238,2659
1238.1,2717
1238.1,2612
1238.1,2576
1238.1,2612
1238.1,2541
1238.2,2412
1238.2,2294
1238.2,2259
1238.2,2212
1238.2,2130
1238.3,2106
1238.3,2118
1238.3,2095
1238.3,2059
1238.3,2024
1238.4,1989
1238.4,2012
1238.4,2083
1238.4,2130
1238.4,2142
1238.5,2142
1238.5,2012
1238.5,1871
1238.5,1754
1238.5,1777
1238.6,1930
1238.6,2189
1238.6,2424
1238.6,2600
1238.6,2764
1238.7,2905
1238.7,3093
1238.7,3140
1238.7,3046
1238.7,2952
1238.8,2894
1238.8,2929
1238.8,2999
1238.8,2988
1238.8,2905
1238.9,2905
1238.9,2905
1238.9,2870
1238.9,2847
1238.9,2788
1239,2717
1239,2588
1239,2447
1239,2353
1239,2388
1239.1,2341
1239.1,2236
1239.1,2165
1239.1,2083
1239.1,2071
1239.2,2071
1239.2,2059
1239.2,2118
1239.2,2118
1239.2,1954
1239.3,1813
1239.3,1695
1239.3,1660
1239.3,1589
1239.3,1578
1239.4,1625
1239.4,1601
1239.4,1589
1239.4,1660
1239.4,1836
1239.5,2095
1239.5,2294
1239.5,2435
1239.5,2612
1239.5,2694
1239.6,2858
1239.6,2905
1239.6,2905
1239.6,2823
1239.6,2764
1239.7,2788
1239.7,2670
1239.7,2600
1239.7,2588
1239.7,2612
1239.8,2588
1239.8,2588
1239.8,2588
1239.8,2494
1239.8,2365
1239.9,2247
1239.9,2200
1239.9,2189
1239.9,2165
1239.9,2118
1240,2001
1240,1895
1240,1930
1240,1918
1240,1860
1240.1,1848
1240.1,1824
1240.1,1801
1240.1,1730
1240.1,1636
1240.2,1542
1240.2,1472
1240.2,1354
1240.2,1319
1240.2,1296
1240.3,1296
1240.3,1390
1240.3,1636
1240.3,1871
1240.3,2036
1240.4,2189
1240.4,2412
1240.4,2659
1240.4,2800
1240.4,2800
1240.5,2670
1240.5,2600
1240.5,2670
1240.5,2811
1240.5,2870
1240.6,2811
1240.6,2729
1240.6,2670
1240.6,2647
1240.6,2553
1240.7,2424
1240.7,2306
1240.7,2283
1240.7,2259
1240.7,2236
1240.8,2200
1240.8,2189
1240.8,2189
1240.8,2200
1240.8,2177
1240.9,2142
1240.9,2036
1240.9,1895
1240.9,1742
1240.9,1660
1241,1683
1241,1578
1241,1437
1241,1448
1241,1531
1241.1,1484
1241.1,1460
1241.1,1507
1241.1,1601
1241.1,1742
1241.2,1871
1241.2,2142
1241.2,2459
1241.2,2623
1241.2,2764
1241.3,2858
1241.3,2964
1241.3,2988
1241.3,2952
1241.3,2894
1241.4,2811
1241.4,2729
1241.4,2588
1241.4,2471
1241.4,2494
1241.5,2459
1241.5,2435
1241.5,2435
1241.5,2412
1241.5,2318
1241.6,2236
1241.6,2224
1241.6,2189
1241.6,2083
1241.6,1895
1241.7,1719
1241.7,1683
1241.7,1707
1241.7,1754
1241.7,1813
1241.8,1801
1241.8,1754
1241.8,1754
1241.8,1730
1241.8,1648
1241.9,1625
1241.9,1613
1241.9,1554
1241.9,1542
1241.9,1507
1242,1495
1242,1507
1242,1566
1242,1660
1242,1777
1242.1,2012
1242.1,2283
1242.1,2588
1242.1,2753
1242.1,2776
1242.2,2800
1242.2,2729
1242.2,2670
1242.2,2647
1242.2,2600
1242.3,2541
1242.3,2471
1242.3,2294
1242.3,2153
1242.3,2200
1242.4,2330
1242.4,2482
1242.4,2541
1242.4,2471
1242.4,2412
1242.5,2447
1242.5,2447
1242.5,2435
1242.5,2412
1242.5,2365
1242.6,2294
1242.6,2259
1242.6,2165
1242.6,2012
1242.6,1836
1242.7,1848
1242.7,1860
1242.7,1730
1242.7,1625
1242.7,1672
1242.8,1707
1242.8,1707
1242.8,1554
1242.8,1448
1242.8,1531
1242.9,1777
1242.9,2083
1242.9,2447
1242.9,2635
1242.9,2670
1243,2741
1243,2823
1243,2870
1243,2858
1243,2847
1243.1,2941
1243.1,2976
1243.1,2988
1243.1,2988
1243.1,2952
1243.2,2882
1243.2,2764
1243.2,2635
1243.2,2612
1243.2,2682
1243.3,2647
1243.3,2659
1243.3,2670
1243.3,2541
1243.3,2330
1243.4,2118
1243.4,2036
1243.4,1965
1243.4,1965
1243.4,1954
1243.5,1848
1243.5,1660
1243.5,1531
1243.5,1554
1243.5,1613
1243.6,1601
1243.6,1495
1243.6,1413
1243.6,1401
1243.6,1331
1243.7,1272
1243.7,1401
1243.7,1519
1243.7,1683
1243.7,1942
1243.8,2212
1243.8,2400
1243.8,2494
1243.8,2553
1243.8,2635
1243.9,2717
1243.9,2694
1243.9,2553
1243.9,2365
1243.9,2259
1244,2259
1244,2177
1244,2130
1244,2212
1244,2200
1244.1,2153
1244.1,2130
1244.1,2118
1244.1,2118
1244.1,2059
1244.2,2095
1244.2,2083
1244.2,2048
1244.2,1942
1244.2,1860
1244.3,1813
1244.3,1683
1244.3,1542
1244.3,1542
1244.3,1531
1244.4,1390
1244.4,1331
1244.4,1260
1244.4,1225
1244.4,1096
1244.5,1108
1244.5,1284
1244.5,1519
1244.5,1707
1244.5,1824
1244.6,1977
1244.6,2165
1244.6,2306
1244.6,2412
1244.6,2553
1244.7,2647
1244.7,2717
1244.7,2764
1244.7,2717
1244.7,2647
1244.8,2435
1244.8,2247
1244.8,2153
1244.8,2200
1244.8,2236
1244.9,2259
1244.9,2283
1244.9,2271
1244.9,2165
1244.9,1965
1245,1895
1245,1883
1245,1907
1245,1848
1245,1730
1245.1,1625
1245.1,1507
1245.1,1460
1245.1,1390
1245.1,1319
1245.2,1319
1245.2,1272
1245.2,1260
1245.2,1249
1245.2,1260
1245.3,1225
1245.3,1260
1245.3,1354
1245.3,1460
1245.3,1542
1245.4,1695
1245.4,1977
1245.4,2177
1245.4,2294
1245.4,2459
1245.5,2694
1245.5,2870
1245.5,2941
1245.5,2964
1245.5,2905
1245.6,2858
1245.6,2800
1245.6,2682
1245.6,2565
1245.6,2623
1245.7,2623
1245.7,2506
1245.7,2377
1245.7,2377
1245.7,2400
1245.8,2400
1245.8,2330
1245.8,2283
1245.8,2142
1245.8,2001
1245.9,2024
1245.9,2012
1245.9,1907
1245.9,1672
1245.9,1601
1246,1695
1246,1672
1246,1531
1246,1437
1246,1425
1246.1,1472
1246.1,1484
1246.1,1425
1246.1,1390
1246.1,1331
1246.2,1319
1246.2,1390
1246.2,1460
1246.2,1660
1246.2,1989
1246.3,2377
1246.3,2682
1246.3,2847
1246.3,2952
1246.3,3023
1246.4,3187
1246.4,3234
1246.4,3199
1246.4,3093
1246.4,2894
1246.5,2764
1246.5,2694
1246.5,2635
1246.5,2635
1246.5,2588
1246.6,2576
1246.6,2576
1246.6,2612
1246.6,2635
1246.6,2529
1246.7,2447
1246.7,2447
1246.7,2447
1246.7,2330
1246.7,2083
1246.8,1895
1246.8,1813
1246.8,1754
1246.8,1801
1246.8,1801
1246.9,1636
1246.9,1472
1246.9,1531
1246.9,1601
1246.9,1566
1247,1472
1247,1390
1247,1260
1247,1249
1247,1401
1247.1,1589
1247.1,1742
1247.1,1954
1247.1,2200
1247.1,2471
1247.2,2717
1247.2,2882
1247.2,2999
1247.2,3035
1247.2,2964
1247.3,2999
1247.3,3011
1247.3,2999
1247.3,2882
1247.3,2753
1247.4,2635
1247.4,2447
1247.4,2412
1247.4,2447
1247.4,2482
1247.5,2435
1247.5,2283
1247.5,2200
1247.5,2189
1247.5,2224
1247.6,2153
1247.6,2106
1247.6,2118
1247.6,2106
1247.6,1977
1247.7,1730
1247.7,1531
1247.7,1272
1247.7,1119
1247.7,1049
1247.8,1002
1247.8,978
1247.8,920
1247.8,814
1247.8,814
1247.9,873
1247.9,884
1247.9,931
1247.9,1037
1247.9,1119
1248,1319
1248,1601
1248,1813
1248,1942
1248,2153
1248.1,2330
1248.1,2447
1248.1,2424
1248.1,2318
1248.1,2259
1248.2,2247
1248.2,2236
1248.2,2247
1248.2,2165
1248.2,2095
1248.3,2153
1248.3,2200
1248.3,2153
1248.3,2130
1248.3,2059
1248.4,1977
1248.4,1883
1248.4,1836
1248.4,1918
1248.4,1871
1248.5,1730
1248.5,1695
1248.5,1636
1248.5,1472
1248.5,1378
1248.6,1296
1248.6,1272
1248.6,1260
1248.6,1225
1248.6,1260
1248.7,1190
1248.7,1190
1248.7,1319
1248.7,1401
1248.7,1531
1248.8,1871
1248.8,2294
1248.8,2588
1248.8,2823
1248.8,2964
1248.9,3082
1248.9,3117
1248.9,3058
1248.9,2988
1248.9,2835
1249,2717
1249,2518
1249,2447
1249,2541
1249,2588
1249.1,2565
1249.1,2482
1249.1,2494
1249.1,2506
1249.1,2400
1249.2,2365
1249.2,2365
1249.2,2341
1249.2,2236
1249.2,2177
1249.3,2130
1249.3,1989
1249.3,1871
1249.3,1801
1249.3,1683
1249.4,1566
1249.4,1390
1249.4,1296
1249.4,1319
1249.4,1401
1249.5,1472
1249.5,1437
1249.5,1378
1249.5,1296
1249.5,1307
1249.6,1390
1249.6,1495
1249.6,1730
1249.6,1989
1249.6,2271
1249.7,2518
1249.7,2623
1249.7,2647
1249.7,2706
1249.7,2788
1249.8,2788
1249.8,2776
1249.8,2788
1249.8,2717
1249.8,2659
1249.9,2600
1249.9,2506
1249.9,2459
1249.9,2412
1249.9,2412
1250,2482
1250,2518
1250,2447
1250,2435
1250,2435
1250.1,2494
1250.1,2494
1250.1,2506
1250.1,2400
1250.1,2271
1250.2,2165
1250.2,2059
1250.2,1930
1250.2,1789
1250.2,1683
1250.3,1601
1250.3,1554
1250.3,1531
1250.3,1531
1250.3,1495
1250.4,1413
1250.4,1343
1250.4,1296
1250.4,1284
1250.4,1354
1250.5,1589
1250.5,2071
1250.5,2435
1250.5,2670
1250.5,2988
1250.6,3270
1250.6,3387
1250.6,3411
1250.6,3434
1250.6,3375
1250.7,3270
1250.7,3152
1250.7,3023
1250.7,2952
1250.7,2905
1250.8,2835
1250.8,2764
1250.8,2717
1250.8,2576
1250.8,2435
1250.9,2424
1250.9,2435
1250.9,2412
1250.9,2424
1250.9,2388
1251,2353
1251,2294
1251,2165
1251,2012
1251,1871
1251.1,1777
1251.1,1648
1251.1,1589
1251.1,1589
1251.1,1648
1251.2,1683
1251.2,1589
1251.2,1542
1251.2,1636
1251.2,1625
1251.3,1613
1251.3,1672
1251.3,1848
1251.3,2189
1251.3,2518
1251.4,2764
1251.4,2988
1251.4,3058
1251.4,3105
1251.4,3082
1251.5,3011
1251.5,3023
1251.5,2929
1251.5,2847
1251.5,2811
1251.6,2764
1251.6,2623
1251.6,2435
1251.6,2247
1251.6,2153
1251.7,2118
1251.7,2236
1251.7,2330
1251.7,2283
1251.7,2200
1251.8,2165
1251.8,2106
1251.8,2036
1251.8,1883
1251.8,1719
1251.9,1578
1251.9,1542
1251.9,1601
1251.9,1578
1251.9,1531
1252,1401
1252,1366
1252,1354
1252,1260
1252,1166
1252.1,1237
1252.1,1331
1252.1,1460
1252.1,1625
1252.1,1813
1252.2,1918
1252.2,2059
1252.2,2283
1252.2,2353
1252.2,2377
1252.3,2541
1252.3,2576
1252.3,2600
1252.3,2706
1252.3,2694
1252.4,2565
1252.4,2377
1252.4,2271
1252.4,2212
1252.4,2177
1252.5,2200
1252.5,2236
1252.5,2271
1252.5,2294
1252.5,2259
1252.6,2200
1252.6,2200
1252.6,2071
1252.6,1871
1252.6,1601
1252.7,1343
1252.7,1413
1252.7,1484
1252.7,1448
1252.7,1331
1252.8,1213
1252.8,1166
1252.8,1202
1252.8,1237
1252.8,1237
1252.9,1296
1252.9,1307
1252.9,1378
1252.9,1554
1252.9,1860
1253,2200
1253,2424
1253,2600
1253,2800
1253,2917
1253.1,2999
1253.1,3070
1253.1,3046
1253.1,2941
1253.1,2811
1253.2,2694
1253.2,2600
1253.2,2541
1253.2,2482
1253.2,2412
1253.3,2388
1253.3,2377
1253.3,2435
1253.3,2506
1253.3,2494
1253.4,2471
1253.4,2388
1253.4,2294
1253.4,2177
1253.4,2095
1253.5,2012
1253.5,1977
1253.5,1895
1253.5,1766
1253.5,1672
1253.6,1625
1253.6,1566
1253.6,1390
1253.6,1249
1253.6,1166
1253.7,1225
1253.7,1307
1253.7,1366
1253.7,1566
1253.7,1801
1253.8,1977
1253.8,2200
1253.8,2600
1253.8,2858
1253.8,2964
1253.9,3011
1253.9,3046
1253.9,3117
1253.9,3117
1253.9,3011
1254,2858
1254,2776
1254,2670
1254,2623
1254,2635
1254.1,2565
1254.1,2412
1254.1,2294
1254.1,2212
1254.1,2259
1254.2,2353
1254.2,2388
1254.2,2365
1254.2,2271
1254.2,2142
1254.3,1989
1254.3,1777
1254.3,1683
1254.3,1554
1254.3,1413
1254.4,1296
1254.4,1202
1254.4,1202
1254.4,1202
1254.4,1119
1254.5,1049
1254.5,1108
1254.5,1213
1254.5,1272
1254.5,1366
1254.6,1660
1254.6,1977
1254.6,2306
1254.6,2506
1254.6,2659
1254.7,2858
1254.7,3070
1254.7,3223
1254.7,3223
1254.7,3176
1254.8,3035
1254.8,2870
1254.8,2800
1254.8,2764
1254.8,2753
1254.9,2788
1254.9,2800
1254.9,2788
1254.9,2776
1254.9,2682
1255,2576
1255,2459
1255,2318
1255,2224
1255,2189
1255.1,2142
1255.1,2130
1255.1,2048
1255.1,1789
1255.1,1625
1255.2,1566
1255.2,1507
1255.2,1437
1255.2,1413
1255.2,1413
1255.3,1366
1255.3,1296
1255.3,1249
1255.3,1284
1255.3,1307
1255.4,1284
1255.4,1331
1255.4,1554
1255.4,1848
1255.4,2118
1255.5,2506
1255.5,2753
1255.5,2929
1255.5,3011
1255.5,3011
1255.6,2929
1255.6,2811
1255.6,2847
1255.6,2929
1255.6,3023
1255.7,3035
1255.7,2999
1255.7,2917
1255.7,2847
1255.7,2800
1255.8,2694
1255.8,2647
1255.8,2600
1255.8,2482
1255.8,2377
1255.9,2330
1255.9,2330
1255.9,2259
1255.9,2024
1255.9,1824
1256,1754
1256,1707
1256,1660
1256,1554
1256,1413
1256.1,1366
1256.1,1296
1256.1,1249
1256.1,1225
1256.1,1178
1256.2,1155
1256.2,1166
1256.2,1225
1256.2,1390
1256.2,1660
1256.3,1942
1256.3,2153
1256.3,2424
1256.3,2694
1256.3,2811
1256.4,2835
1256.4,2835
1256.4,2717
1256.4,2670
1256.4,2635
1256.5,2600
1256.5,2518
1256.5,2424
1256.5,2424
1256.5,2447
1256.6,2377
1256.6,2306
1256.6,2294
1256.6,2353
1256.6,2377
1256.7,2377
1256.7,2259
1256.7,2130
1256.7,1989
1256.7,1824
1256.8,1601
1256.8,1460
1256.8,1378
1256.8,1354
1256.8,1413
1256.9,1448
1256.9,1460
1256.9,1460
1256.9,1378
1256.9,1296
1257,1272
1257,1260
1257,1249
1257,1484
1257,1813
1257.1,2142
1257.1,2341
1257.1,2471
1257.1,2741
1257.1,2999
1257.2,3093
1257.2,3129
1257.2,3082
1257.2,3046
1257.2,3023
1257.3,2917
1257.3,2753
1257.3,2647
1257.3,2553
1257.3,2482
1257.4,2482
1257.4,2412
1257.4,2412
1257.4,2471
1257.4,2506
1257.5,2447
1257.5,2330
1257.5,2189
1257.5,2071
1257.5,1989
1257.6,1871
1257.6,1672
1257.6,1578
1257.6,1472
1257.6,1448
1257.7,1531
1257.7,1448
1257.7,1260
1257.7,1190
1257.7,1202
1257.8,1213
1257.8,1213
1257.8,1354
1257.8,1742
1257.8,2118
1257.9,2365
1257.9,2717
1257.9,2988
1257.9,3164
1257.9,3281
1258,3364
1258,3505
1258,3540
1258,3516
1258,3434
1258.1,3293
1258.1,3093
1258.1,2941
1258.1,2800
1258.1,2623
1258.2,2518
1258.2,2482
1258.2,2494
1258.2,2506
1258.2,2494
1258.3,2435
1258.3,2330
1258.3,2212
1258.3,2130
1258.3,2001
1258.4,1871
1258.4,1777
1258.4,1648
1258.4,1519
1258.4,1425
1258.5,1378
1258.5,1319
1258.5,1202
1258.5,1037
1258.5,978
1258.6,967
1258.6,955
1258.6,967
1258.6,1014
1258.6,1307
1258.7,1766
1258.7,2142
1258.7,2612
1258.7,2905
1258.7,3011
1258.8,3152
1258.8,3234
1258.8,3234
1258.8,3129
1258.8,2952
1258.9,2788
1258.9,2776
1258.9,2659
1258.9,2482
1258.9,2412
1259,2424
1259,2424
1259,2377
1259,2247
1259,2059
1259.1,1907
1259.1,1813
1259.1,1719
1259.1,1601
1259.1,1589
1259.2,1601
1259.2,1437
1259.2,1284
1259.2,1202
1259.2,1096
1259.3,1037
1259.3,1108
1259.3,1108
1259.3,1037
1259.3,967
1259.4,873
1259.4,802
1259.4,837
1259.4,743
1259.4,708
1259.5,943
1259.5,1284
1259.5,1613
1259.5,1871
1259.5,2118
1259.6,2447
1259.6,2729
1259.6,2847
1259.6,2800
1259.6,2753
1259.7,2753
1259.7,2588
1259.7,2471
1259.7,2400
1259.7,2365
1259.8,2271
1259.8,2106
1259.8,1918
1259.8,1942
1259.8,1918
1259.9,1836
1259.9,1813
1259.9,1719
1259.9,1566
1259.9,1495
1260,1542
1260,1495
1260,1343
1260,1202
1260,1178
1260.1,1202
1260.1,1166
1260.1,1143
1260.1,1108
1260.1,1049
1260.2,967
1260.2,943
1260.2,990
1260.2,943
1260.2,826
1260.3,755
1260.3,873
1260.3,1084
1260.3,1343
1260.3,1589
1260.4,1907
1260.4,2283
1260.4,2635
1260.4,2776
1260.4,2835
1260.5,2847
1260.5,2788
1260.5,2659
1260.5,2600
1260.5,2623
1260.6,2600
1260.6,2459
1260.6,2400
1260.6,2353
1260.6,2224
1260.7,2130
1260.7,2048
1260.7,1965
1260.7,1930
1260.7,1883
1260.8,1918
1260.8,2095
1260.8,2118
1260.8,2012
1260.8,1907
1260.9,1777
1260.9,1601
1260.9,1354
1260.9,1155
1260.9,1096
1261,1119
1261,1061
1261,1025
1261,1061
1261,978
1261.1,967
1261.1,1072
1261.1,1272
1261.1,1613
1261.1,2059
1261.2,2424
1261.2,2623
1261.2,2788
1261.2,2870
1261.2,2823
1261.3,2776
1261.3,2800
1261.3,2835
1261.3,2706
1261.3,2435
1261.4,2306
1261.4,2306
1261.4,2283
1261.4,2177
1261.4,2106
1261.5,2142
1261.5,2177
1261.5,2189
1261.5,2189
1261.5,2142
1261.6,2071
1261.6,1954
1261.6,1742
1261.6,1507
1261.6,1401
1261.7,1307
1261.7,1237
1261.7,1190
1261.7,1202
1261.7,1166
1261.8,1108
1261.8,1108
1261.8,1143
1261.8,1178
1261.8,1213
1261.9,1284
1261.9,1460
1261.9,1860
1261.9,2400
1261.9,2788
1262,3058
1262,3164
1262,3199
1262,3223
1262,3258
1262.1,3270
1262.1,3211
1262.1,3117
1262.1,3011
1262.1,2917
1262.2,2764
1262.2,2588
1262.2,2471
1262.2,2435
1262.2,2388
1262.3,2306
1262.3,2153
1262.3,2024
1262.3,1965
1262.3,1930
1262.4,1895
1262.4,1930
1262.4,1965
1262.4,1895
1262.4,1707
1262.5,1495
1262.5,1413
1262.5,1413
1262.5,1343
1262.5,1284
1262.6,1190
1262.6,1166
1262.6,1213
1262.6,1213
1262.6,1237
1262.7,1284
1262.7,1401
1262.7,1589
1262.7,1895
1262.7,2212
1262.8,2494
1262.8,2905
1262.8,3152
1262.8,3375
1262.8,3481
1262.9,3516
1262.9,3434
1262.9,3340
1262.9,3223
1262.9,3082
1263,2905
1263,2753
1263,2635
1263,2529
1263,2377
1263.1,2318
1263.1,2353
1263.1,2400
1263.1,2341
1263.1,2294
1263.2,2365
1263.2,2306
1263.2,2153
1263.2,1942
1263.2,1848
1263.3,1871
1263.3,1918
1263.3,1883
1263.3,1789
1263.3,1719
1263.4,1566
1263.4,1413
1263.4,1284
1263.4,1225
1263.4,1202
1263.5,1155
1263.5,1119
1263.5,1025
1263.5,978
1263.5,1084
1263.6,1260
1263.6,1484
1263.6,1695
1263.6,1977
1263.6,2353
1263.7,2670
1263.7,2917
1263.7,3011
1263.7,3082
1263.7,3082
1263.8,2976
1263.8,2870
1263.8,2952
1263.8,2941
1263.8,2905
1263.9,2858
1263.9,2753
1263.9,2694
1263.9,2694
1263.9,2729
1264,2729
1264,2635
1264,2482
1264,2330
1264,2283
1264.1,2224
1264.1,2153
1264.1,2036
1264.1,1918
1264.1,1719
1264.2,1448
1264.2,1307
1264.2,1296
1264.2,1296
1264.2,1260
1264.3,1178
1264.3,1143
1264.3,1143
1264.3,1202
1264.3,1237
1264.4,1225
1264.4,1190
1264.4,1119
1264.4,1049
1264.4,1061
1264.5,1143
1264.5,1225
1264.5,1307
1264.5,1554
1264.5,1895
1264.6,2283
1264.6,2565
1264.6,2729
1264.6,2858
1264.6,2929
1264.7,2870
1264.7,2753
1264.7,2717
1264.7,2811
1264.7,2823
1264.8,2659
1264.8,2612
1264.8,2600
1264.8,2612
1264.8,2706
1264.9,2706
1264.9,2600
1264.9,2565
1264.9,2494
1264.9,2388
1265,2365
1265,2330
1265,2283
1265,2271
1265,2212
1265.1,2083
1265.1,2001
1265.1,1918
1265.1,1801
1265.1,1672
1265.2,1531
1265.2,1425
1265.2,1307
1265.2,1237
1265.2,1237
1265.3,1213
1265.3,1155
1265.3,1084
1265.3,990
1265.3,931
1265.4,931
1265.4,943
1265.4,955
1265.4,1119
1265.4,1437
1265.5,1777
1265.5,2106
1265.5,2424
1265.5,2694
1265.5,2847
1265.6,2929
1265.6,3011
1265.6,2917
1265.6,2729
1265.6,2600
1265.7,2623
1265.7,2659
1265.7,2600
1265.7,2471
1265.7,2294
1265.8,2236
1265.8,2341
1265.8,2330
1265.8,2212
1265.8,2153
1265.9,2165
1265.9,2118
1265.9,1954
1265.9,1824
1265.9,1813
1266,1836
1266,1836
1266,1801
1266,1695
1266,1554
1266.1,1354
1266.1,1202
1266.1,1155
1266.1,1225
1266.1,1307
1266.2,1260
1266.2,1178
1266.2,1202
1266.2,1225
1266.2,1354
1266.3,1566
1266.3,1895
1266.3,2306
1266.3,2647
1266.3,2870
1266.4,3023
1266.4,3070
1266.4,3140
1266.4,3211
1266.4,3211
1266.5,3187
1266.5,3152
1266.5,3117
1266.5,2964
1266.5,2847
1266.6,2682
1266.6,2576
1266.6,2576
1266.6,2506
1266.6,2388
1266.7,2400
1266.7,2482
1266.7,2553
1266.7,2588
1266.7,2588
1266.8,2494
1266.8,2330
1266.8,2142
1266.8,1989
1266.8,1860
1266.9,1801
1266.9,1683
1266.9,1589
1266.9,1484
1266.9,1413
1267,1390
1267,1401
1267,1354
1267,1354
1267,1484
1267.1,1601
1267.1,1836
1267.1,2212
1267.1,2541
1267.1,2729
1267.2,3082
1267.2,3434
1267.2,3622
1267.2,3599
1267.2,3669
1267.3,3763
1267.3,3751
1267.3,3610
1267.3,3469
1267.3,3399
1267.4,3422
1267.4,3352
1267.4,3328
1267.4,3270
1267.4,3164
1267.5,3011
1267.5,2941
1267.5,2929
1267.5,2917
1267.5,2882
1267.6,2753
1267.6,2518
1267.6,2365
1267.6,2200
1267.6,2036
1267.7,1883
1267.7,1707
1267.7,1484
1267.7,1390
1267.7,1460
1267.8,1507
1267.8,1460
1267.8,1448
1267.8,1472
1267.8,1366
1267.9,1225
1267.9,1213
1267.9,1460
1267.9,1848
1267.9,2200
1268,2541
1268,2823
1268,3058
1268,3293
1268,3516
1268.1,3587
1268.1,3516
1268.1,3434
1268.1,3387
1268.1,3246
1268.2,3082
1268.2,2941
1268.2,2847
1268.2,2800
1268.2,2717
1268.3,2623
1268.3,2553
1268.3,2447
1268.3,2365
1268.3,2200
1268.4,2095
1268.4,2059
1268.4,2048
1268.4,1977
1268.4,1918
1268.5,1895
1268.5,1836
1268.5,1695
1268.5,1542
1268.5,1425
1268.6,1284
1268.6,1131
1268.6,1002
1268.6,908
1268.6,884
1268.7,837
1268.7,790
1268.7,826
1268.7,1025
1268.7,1401
1268.8,1860
1268.8,2271
1268.8,2576
1268.8,2811
1268.8,2952
1268.9,3070
1268.9,3105
1268.9,3129
1268.9,3152
1268.9,3152
1269,3105
1269,2952
1269,2858
1269,2741
1269,2576
1269.1,2471
1269.1,2424
1269.1,2341
1269.1,2341
1269.1,2318
1269.2,2259
1269.2,2177
1269.2,2095
1269.2,1930
1269.2,1754
1269.3,1625
1269.3,1542
1269.3,1448
1269.3,1390
1269.3,1319
1269.4,1272
1269.4,1249
1269.4,1155
1269.4,1037
1269.4,908
1269.5,790
1269.5,802
1269.5,873
1269.5,1061
1269.5,1213
1269.6,1366
1269.6,1589
1269.6,1907
1269.6,2247
1269.6,2529
1269.7,2694
1269.7,3035
1269.7,3328
1269.7,3469
1269.7,3458
1269.8,3305
1269.8,3187
1269.8,3058
1269.8,2870
1269.8,2659
1269.9,2600
1269.9,2612
1269.9,2588
1269.9,2576
1269.9,2518
1270,2377
1270,2259
1270,2247
1270,2236
1270,2224
1270.1,2118
1270.1,2048
1270.1,1860
1270.1,1589
1270.1,1484
1270.2,1378
1270.2,1307
1270.2,1225
1270.2,1096
1270.2,1025
1270.3,967
1270.3,849
1270.3,802
1270.3,743
1270.3,638
1270.4,802
1270.4,1166
1270.4,1554
1270.4,1942
1270.4,2283
1270.5,2565
1270.5,2682
1270.5,2788
1270.5,2823
1270.5,2811
1270.6,2823
1270.6,2858
1270.6,2811
1270.6,2717
1270.6,2588
1270.7,2424
1270.7,2330
1270.7,2294
1270.7,2294
1270.7,2400
1270.8,2424
1270.8,2377
1270.8,2271
1270.8,2142
1270.8,2095
1270.9,2036
1270.9,1813
1270.9,1589
1270.9,1495
1270.9,1484
1271,1507
1271,1425
1271,1401
1271,1366
1271,1390
1271.1,1460
1271.1,1460
1271.1,1354
1271.1,1131
1271.1,1072
1271.2,1272
1271.2,1672
1271.2,2142
1271.2,2647
1271.2,2999
1271.3,3270
1271.3,3528
1271.3,3669
1271.3,3751
1271.3,3716
1271.4,3634
1271.4,3493
1271.4,3340
1271.4,3199
1271.4,2952
1271.5,2741
1271.5,2706
1271.5,2717
1271.5,2788
1271.5,2811
1271.6,2764
1271.6,2729
1271.6,2647
1271.6,2459
1271.6,2283
1271.7,2083
1271.7,1918
1271.7,1813
1271.7,1766
1271.7,1672
1271.8,1601
1271.8,1484
1271.8,1354
1271.8,1272
1271.8,1178
1271.9,1155
1271.9,1131
1271.9,1037
1271.9,920
1271.9,896
1272,884
1272,1014
1272,1437
1272,1883
1272,2219
1272.1,2542
1272.1,2817
1272.1,2931
1272.1,3036
1272.1,3207
1272.2,3330
1272.2,3330
1272.2,3264
1272.2,3131
1272.2,2950
1272.3,2779
1272.3,2656
1272.3,2589
1272.3,2542
1272.3,2466
1272.4,2418
1272.4,2361
1272.4,2304
1272.4,2295
1272.4,2238
1272.5,2095
1272.5,1991
1272.5,1877
1272.5,1763
1272.5,1687
1272.6,1649
1272.6,1582
1272.6,1506
1272.6,1430
1272.6,1345
1272.7,1259
1272.7,1117
1272.7,1031
1272.7,1012
1272.7,936
1272.8,879
1272.8,841
1272.8,756
1272.8,708
1272.8,832
1272.9,1174
1272.9,1506
1272.9,1848
1272.9,2190
1272.9,2428
1273,2561
1273,2608
1273,2637
1273,2703
1273,2732
1273.1,2770
1273.1,2694
1273.1,2542
1273.1,2428
1273.1,2361
1273.2,2247
1273.2,2247
1273.2,2200
1273.2,2105
1273.2,2057
1273.3,1972
1273.3,1867
1273.3,1744
1273.3,1763
1273.3,1782
1273.4,1725
1273.4,1611
1273.4,1516
1273.4,1430
1273.4,1316
1273.5,1155
1273.5,1012
1273.5,927
1273.5,822
1273.5,822
1273.6,851
1273.6,813
1273.6,832
1273.6,879
1273.6,889
1273.7,870
1273.7,841
1273.7,908
1273.7,1098
1273.7,1392
1273.8,1706
1273.8,1905
1273.8,2038
1273.8,2228
1273.8,2447
1273.9,2589
1273.9,2618
1273.9,2599
1273.9,2561
1273.9,2466
1274,2323
1274,2190
1274,2105
1274,2057
1274,2019
1274.1,1981
1274.1,1915
1274.1,1829
1274.1,1772
1274.1,1744
1274.2,1706
1274.2,1744
1274.2,1772
1274.2,1725
1274.2,1573
1274.3,1468
1274.3,1383
1274.3,1307
1274.3,1269
1274.3,1307
1274.4,1288
1274.4,1231
1274.4,1155
1274.4,1031
1274.4,965
1274.5,946
1274.5,955
1274.5,1079
1274.5,1297
1274.5,1525
1274.6,1791
1274.6,2038
1274.6,2276
1274.6,2485
1274.6,2675
1274.7,2817
1274.7,2836
1274.7,2827
1274.7,2760
1274.7,2608
1274.8,2589
1274.8,2513
1274.8,2361
1274.8,2295
1274.8,2257
1274.9,2380
1274.9,2466
1274.9,2447
1274.9,2352
1274.9,2266
1275,2190
1275,2181
1275,2133
1275,2105
1275,2086
1275.1,2057
1275.1,1920
1275.1,1808
1275.1,1733
1275.1,1703
1275.2,1650
1275.2,1583
1275.2,1583
1275.2,1650
1275.2,1680
1275.3,1613
1275.3,1493
1275.3,1388
1275.3,1365
1275.3,1515
1275.4,1680
1275.4,1875
1275.4,2018
1275.4,2175
1275.4,2348
1275.5,2520
1275.5,2655
1275.5,2708
1275.5,2670
1275.5,2730
1275.6,2760
1275.6,2723
1275.6,2663
1275.6,2640
1275.6,2633
1275.7,2595
1275.7,2543
1275.7,2505
1275.7,2498
1275.7,2475
1275.8,2430
1275.8,2378
1275.8,2348
1275.8,2265
1275.8,2198
1275.9,2213
1275.9,2250
1275.9,2130
1275.9,2010
1275.9,1928
1276,1913
1276,1943
1276,1935
1276,1890
1276,1778
1276.1,1665
1276.1,1635
1276.1,1665
1276.1,1695
1276.1,1688
1276.2,1635
1276.2,1695
1276.2,1778
1276.2,1890
1276.2,2040
1276.3,2198
1276.3,2333
1276.3,2475
1276.3,2633
1276.3,2715
1276.4,2790
1276.4,2790
1276.4,2723
1276.4,2640
1276.4,2618
1276.5,2588
1276.5,2588
1276.5,2565
1276.5,2513
1276.5,2445
1276.6,2408
1276.6,2393
1276.6,2393
1276.6,2400
1276.6,2348
1276.7,2340
1276.7,2310
1276.7,2235
1276.7,2220
1276.7,2190
1276.8,2108
1276.8,2070
1276.8,2078
1276.8,2055
1276.8,1965
1276.9,1883
1276.9,1838
1276.9,1800
1276.9,1740
1276.9,1703
1277,1718
1277,1755
1277,1733
1277,1710
1277,1703
1277.1,1755
1277.1,1845
1277.1,1988
1277.1,2168
1277.1,2355
1277.2,2520
1277.2,2603
1277.2,2595
1277.2,2558
1277.2,2543
1277.3,2565
1277.3,2558
1277.3,2528
1277.3,2460
1277.3,2340
1277.4,2310
1277.4,2310
1277.4,2250
1277.4,2183
1277.4,2145
1277.5,2145
1277.5,2123
1277.5,2100
1277.5,2085
1277.5,2108
1277.6,2100
1277.6,2063
1277.6,1958
1277.6,1905
1277.6,1898
1277.7,1830
1277.7,1665
1277.7,1590
1277.7,1598
1277.7,1613
1277.8,1590
1277.8,1635
1277.8,1680
1277.8,1665
1277.8,1605
1277.9,1575
1277.9,1560
1277.9,1643
1277.9,1778
1277.9,1883
1278,2085
1278,2303
1278,2438
1278,2475
1278,2393
1278.1,2333
1278.1,2333
1278.1,2385
1278.1,2393
1278.1,2348
1278.2,2310
1278.2,2273
1278.2,2198
1278.2,2153
1278.2,2175
1278.3,2190
1278.3,2183
1278.3,2168
1278.3,2183
1278.3,2123
1278.4,2040
1278.4,1980
1278.4,1958
1278.4,1988
1278.4,2040
1278.5,2048
1278.5,2033
1278.5,2010
1278.5,1965
1278.5,1928
1278.6,1823
1278.6,1733
1278.6,1665
1278.6,1613
1278.6,1598
1278.7,1538
1278.7,1605
1278.7,1755
1278.7,1913
1278.7,2115
1278.8,2310
1278.8,2423
1278.8,2490
1278.8,2573
1278.8,2595
1278.9,2595
1278.9,2618
1278.9,2618
1278.9,2610
1278.9,2618
1279,2618
1279,2573
1279,2520
1279,2460
1279,2288
1279.1,2160
1279.1,2085
1279.1,2085
1279.1,2108
1279.1,2145
1279.2,2205
1279.2,2235
1279.2,2243
1279.2,2205
1279.2,2145
1279.3,2063
1279.3,1980
1279.3,1950
1279.3,1898
1279.3,1838
1279.4,1838
1279.4,1815
1279.4,1785
1279.4,1755
1279.4,1658
1279.5,1568
1279.5,1523
1279.5,1583
1279.5,1613
1279.5,1710
1279.6,1815
1279.6,2010
1279.6,2183
1279.6,2378
1279.6,2580
1279.7,2693
1279.7,2745
1279.7,2768
1279.7,2768
1279.7,2738
1279.8,2678
1279.8,2625
1279.8,2595
1279.8,2565
1279.8,2565
1279.9,2558
1279.9,2475
1279.9,2415
1279.9,2325
1279.9,2318
1280,2378
1280,2453
1280,2408
1280,2340
1280,2243
1280.1,2228
1280.1,2280
1280.1,2303
1280.1,2280
1280.1,2190
1280.2,2138
1280.2,2063
1280.2,1935
1280.2,1778
1280.2,1665
1280.3,1650
1280.3,1680
1280.3,1658
1280.3,1613
1280.3,1545
1280.4,1515
1280.4,1553
1280.4,1628
1280.4,1808
1280.4,1988
1280.5,2190
1280.5,2355
1280.5,2460
1280.5,2565
1280.5,2603
1280.6,2670
1280.6,2715
1280.6,2693
1280.6,2595
1280.6,2558
1280.7,2498
1280.7,2423
1280.7,2378
1280.7,2348
1280.7,2325
1280.8,2318
1280.8,2295
1280.8,2325
1280.8,2355
1280.8,2483
1280.9,2543
1280.9,2483
1280.9,2385
1280.9,2310
1280.9,2213
1281,2093
1281,2019
1281,1981
1281,1962
1281,1972
1281.1,1877
1281.1,1744
1281.1,1725
1281.1,1696
1281.1,1658
1281.2,1611
1281.2,1592
1281.2,1525
1281.2,1487
1281.2,1516
1281.3,1478
1281.3,1411
1281.3,1440
1281.3,1611
1281.3,1858
1281.4,2076
1281.4,2247
1281.4,2409
1281.4,2580
1281.4,2741
1281.5,2817
1281.5,2808
1281.5,2817
1281.5,2817
1281.5,2779
1281.6,2637
1281.6,2551
1281.6,2437
1281.6,2390
1281.6,2352
1281.7,2314
1281.7,2276
1281.7,2323
1281.7,2361
1281.7,2304
1281.8,2171
1281.8,2105
1281.8,2029
1281.8,2000
1281.8,2010
1281.9,2010
1281.9,2038
1281.9,2019
1281.9,1915
1281.9,1810
1282,1753
1282,1658
1282,1620
1282,1630
1282,1601
1282.1,1563
1282.1,1525
1282.1,1440
1282.1,1383
1282.1,1383
1282.2,1478
1282.2,1744
1282.2,2010
1282.2,2266
1282.2,2551
1282.3,2618
1282.3,2684
1282.3,2789
1282.3,2865
1282.3,2912
1282.4,2912
1282.4,2846
1282.4,2646
1282.4,2485
1282.4,2475
1282.5,2466
1282.5,2475
1282.5,2532
1282.5,2561
1282.5,2561
1282.6,2551
1282.6,2561
1282.6,2551
1282.6,2456
1282.6,2295
1282.7,2190
1282.7,2133
1282.7,1981
1282.7,1810
1282.7,1763
1282.8,1706
1282.8,1639
1282.8,1563
1282.8,1525
1282.8,1506
1282.9,1516
1282.9,1525
1282.9,1487
1282.9,1449
1282.9,1468
1283,1563
1283,1744
1283,1943
1283,2124
1283,2323
1283.1,2523
1283.1,2713
1283.1,2874
1283.1,2998
1283.1,3036
1283.2,3007
1283.2,2969
1283.2,2969
1283.2,2931
1283.2,2884
1283.3,2779
1283.3,2732
1283.3,2751
1283.3,2713
1283.3,2627
1283.4,2599
1283.4,2504
1283.4,2409
1283.4,2371
1283.4,2390
1283.5,2399
1283.5,2314
1283.5,2152
1283.5,2057
1283.5,2029
1283.6,2029
1283.6,2000
1283.6,1905
1283.6,1772
1283.6,1658
1283.7,1639
1283.7,1687
1283.7,1696
1283.7,1658
1283.7,1630
1283.8,1630
1283.8,1677
1283.8,1763
1283.8,1877
1283.8,2048
1283.9,2377
1283.9,2659
1283.9,2929
1283.9,3129
1283.9,3270
1284,3340
1284,3375
1284,3375
1284,3293
1284,3223
1284.1,3187
1284.1,3117
1284.1,2988
1284.1,2882
1284.1,2823
1284.2,2858
1284.2,2788
1284.2,2694
1284.2,2647
1284.2,2647
1284.3,2623
1284.3,2600
1284.3,2518
1284.3,2435
1284.3,2306
1284.4,2130
1284.4,1871
1284.4,1683
1284.4,1601
1284.4,1566
1284.5,1566
1284.5,1542
1284.5,1531
1284.5,1589
1284.5,1601
1284.6,1495
1284.6,1519
1284.6,1460
1284.6,1260
1284.6,1307
1284.7,1554
1284.7,1777
1284.7,1977
1284.7,2259
1284.7,2600
1284.8,2858
1284.8,3023
1284.8,3140
1284.8,3199
1284.8,3164
1284.9,3046
1284.9,2929
1284.9,2788
1284.9,2647
1284.9,2529
1285,2506
1285,2518
1285,2518
1285,2529
1285,2494
1285.1,2435
1285.1,2306
1285.1,2130
1285.1,2059
1285.1,2071
1285.2,2036
1285.2,2024
1285.2,1942
1285.2,1766
1285.2,1519
1285.3,1354
1285.3,1260
1285.3,1119
1285.3,955
1285.3,978
1285.4,978
1285.4,908
1285.4,755
1285.4,685
1285.4,802
1285.5,802
1285.5,673
1285.5,591
1285.5,555
1285.5,614
1285.6,767
1285.6,1025
1285.6,1437
1285.6,1883
1285.6,2083
1285.7,2330
1285.7,2529
1285.7,2647
1285.7,2659
1285.7,2518
1285.8,2306
1285.8,2212
1285.8,2200
1285.8,2095
1285.8,2048
1285.9,2083
1285.9,2106
1285.9,1942
1285.9,1777
1285.9,1766
1286,1813
1286,1918
1286,1954
1286,1930
1286,1824
1286.1,1660
1286.1,1531
1286.1,1413
1286.1,1343
1286.1,1307
1286.2,1307
1286.2,1237
1286.2,1155
1286.2,1084
1286.2,1072
1286.3,1025
1286.3,967
1286.3,955
1286.3,978
1286.3,943
1286.4,931
1286.4,1037
1286.4,1213
1286.4,1378
1286.4,1601
1286.5,1871
1286.5,2153
1286.5,2553
1286.5,2870
1286.5,3070
1286.6,3093
1286.6,3176
1286.6,3187
1286.6,3176
1286.6,3140
1286.7,3093
1286.7,3011
1286.7,2882
1286.7,2670
1286.7,2565
1286.8,2506
1286.8,2494
1286.8,2482
1286.8,2518
1286.8,2565
1286.9,2588
1286.9,2506
1286.9,2365
1286.9,2224
1286.9,2036
1287,1989
1287,1942
1287,1930
1287,1836
1287,1707
1287.1,1578
1287.1,1390
1287.1,1296
1287.1,1284
1287.1,1202
1287.2,1178
1287.2,1213
1287.2,1225
1287.2,1249
1287.2,1378
1287.3,1578
1287.3,1883
1287.3,2177
1287.3,2541
1287.3,2882
1287.4,3152
1287.4,3317
1287.4,3458
1287.4,3516
1287.4,3481
1287.5,3375
1287.5,3246
1287.5,3105
1287.5,2976
1287.5,2964
1287.6,2952
1287.6,2894
1287.6,2882
1287.6,2800
1287.6,2706
1287.7,2623
1287.7,2553
1287.7,2518
1287.7,2377
1287.7,2142
1287.8,2059
1287.8,2059
1287.8,1977
1287.8,1824
1287.8,1613
1287.9,1484
1287.9,1401
1287.9,1272
1287.9,1096
1287.9,896
1288,920
1288,1061
1288,1143
1288,1072
1288,1002
1288.1,1072
1288.1,990
1288.1,814
1288.1,849
1288.1,1131
1288.2,1460
1288.2,1813
1288.2,2106
1288.2,2506
1288.2,2847
1288.3,3035
1288.3,3093
1288.3,3058
1288.3,3035
1288.3,2999
1288.4,2941
1288.4,2835
1288.4,2670
1288.4,2553
1288.4,2494
1288.5,2424
1288.5,2388
1288.5,2318
1288.5,2212
1288.5,2165
1288.6,2271
1288.6,2353
1288.6,2224
1288.6,1965
1288.6,1719
1288.7,1519
1288.7,1484
1288.7,1507
1288.7,1542
1288.7,1507
1288.8,1413
1288.8,1296
1288.8,1213
1288.8,1284
1288.8,1307
1288.9,1307
1288.9,1249
1288.9,1190
1288.9,1155
1288.9,990
1289,743
1289,591
1289,696
1289,849
1289,990
1289.1,1190
1289.1,1448
1289.1,1754
1289.1,2059
1289.1,2400
1289.2,2670
1289.2,2952
1289.2,3117
1289.2,3211
1289.2,3140
1289.3,2952
1289.3,2741
1289.3,2576
1289.3,2529
1289.3,2518
1289.4,2447
1289.4,2341
1289.4,2189
1289.4,2083
1289.4,2095
1289.5,2200
1289.5,2236
1289.5,2224
1289.5,2200
1289.5,2106
1289.6,2001
1289.6,1871
1289.6,1754
1289.6,1660
1289.6,1542
1289.7,1495
1289.7,1519
1289.7,1472
1289.7,1354
1289.7,1213
1289.8,1096
1289.8,1049
1289.8,1049
1289.8,1061
1289.8,1037
1289.9,1037
1289.9,1049
1289.9,1037
1289.9,1037
1289.9,1143
1290,1390
1290,1742
1290,2083
1290,2341
1290,2529
1290.1,2717
1290.1,2835
1290.1,2976
1290.1,3105
1290.1,3187
1290.2,3129
1290.2,2999
1290.2,2870
1290.2,2776
1290.2,2694
1290.3,2623
1290.3,2588
1290.3,2541
1290.3,2471
1290.3,2400
1290.4,2400
1290.4,2412
1290.4,2471
1290.4,2482
1290.4,2400
1290.5,2259
1290.5,2130
1290.5,2024
1290.5,1860
1290.5,1730
1290.6,1695
1290.6,1613
1290.6,1448
1290.6,1296
1290.6,1143
1290.7,1049
1290.7,955
1290.7,943
1290.7,990
1290.7,1108
1290.8,1319
1290.8,1601
1290.8,1918
1290.8,2306
1290.8,2635
1290.9,2894
1290.9,3117
1290.9,3375
1290.9,3481
1290.9,3481
1291,3481
1291,3293
1291,3093
1291,3093
1291,2988
1291.1,2847
1291.1,2776
1291.1,2729
1291.1,2659
1291.1,2506
1291.2,2447
1291.2,2424
1291.2,2365
1291.2,2306
1291.2,2224
1291.3,2153
1291.3,2153
1291.3,2059
1291.3,1965
1291.3,1942
1291.4,1883
1291.4,1836
1291.4,1742
1291.4,1589
1291.4,1413
1291.5,1413
1291.5,1366
1291.5,1307
1291.5,1284
1291.5,1296
1291.6,1437
1291.6,1672
1291.6,1989
1291.6,2318
1291.6,2565
1291.7,2894
1291.7,3281
1291.7,3552
1291.7,3669
1291.7,3693
1291.8,3669
1291.8,3575
1291.8,3422
1291.8,3234
1291.8,2999
1291.9,2811
1291.9,2670
1291.9,2635
1291.9,2694
1291.9,2694
1292,2576
1292,2435
1292,2330
1292,2271
1292,2189
1292.1,2095
1292.1,2036
1292.1,2036
1292.1,2048
1292.1,1965
1292.2,1777
1292.2,1625
1292.2,1566
1292.2,1460
1292.2,1307
1292.3,1166
1292.3,1084
1292.3,1096
1292.3,1084
1292.3,1037
1292.4,943
1292.4,896
1292.4,943
1292.4,1037
1292.4,1272
1292.5,1578
1292.5,2001
1292.5,2553
1292.5,3023
1292.5,3258
1292.6,3317
1292.6,3352
1292.6,3246
1292.6,3270
1292.6,3281
1292.7,3164
1292.7,3035
1292.7,2882
1292.7,2729
1292.7,2635
1292.8,2553
1292.8,2435
1292.8,2353
1292.8,2306
1292.8,2259
1292.9,2130
1292.9,2059
1292.9,1942
1292.9,1836
1292.9,1719
1293,1625
1293,1554
1293,1542
1293,1495
1293,1460
1293.1,1413
1293.1,1331
1293.1,1155
1293.1,1025
1293.1,967
1293.2,920
1293.2,908
1293.2,896
1293.2,884
1293.2,873
1293.3,837
1293.3,920
1293.3,1155
1293.3,1472
1293.3,1848
1293.4,2200
1293.4,2494
1293.4,2811
1293.4,3035
1293.4,3199
1293.5,3223
1293.5,3199
1293.5,3199
1293.5,3176
1293.5,3035
1293.6,2929
1293.6,2858
1293.6,2753
1293.6,2670
1293.6,2576
1293.7,2506
1293.7,2482
1293.7,2447
1293.7,2388
1293.7,2365
1293.8,2341
1293.8,2306
1293.8,2283
1293.8,2189
1293.8,2083
1293.9,2012
1293.9,1824
1293.9,1672
1293.9,1613
1293.9,1542
1294,1531
1294,1507
1294,1460
1294,1354
1294,1213
1294.1,1061
1294.1,908
1294.1,814
1294.1,802
1294.1,884
1294.2,943
1294.2,1143
1294.2,1366
1294.2,1578
1294.2,1907
1294.3,2330
1294.3,2800
1294.3,3082
1294.3,3199
1294.3,3270
1294.4,3411
1294.4,3540
1294.4,3540
1294.4,3458
1294.4,3270
1294.5,3117
1294.5,2964
1294.5,2764
1294.5,2600
1294.5,2565
1294.6,2518
1294.6,2494
1294.6,2529
1294.6,2600
1294.6,2623
1294.7,2576
1294.7,2506
1294.7,2388
1294.7,2224
1294.7,2071
1294.8,1962
1294.8,1905
1294.8,1858
1294.8,1734
1294.8,1592
1294.9,1506
1294.9,1478
1294.9,1440
1294.9,1383
1294.9,1326
1295,1297
1295,1335
1295,1326
1295,1373
1295,1364
1295.1,1373
1295.1,1364
1295.1,1497
1295.1,1763
1295.1,2105
1295.2,2494
1295.2,2836
1295.2,3064
1295.2,3159
1295.2,3226
1295.3,3273
1295.3,3264
1295.3,3235
1295.3,3169
1295.3,3112
1295.4,2979
1295.4,2846
1295.4,2732
1295.4,2608
1295.4,2523
1295.5,2513
1295.5,2523
1295.5,2494
1295.5,2409
1295.5,2428
1295.6,2456
1295.6,2409
1295.6,2295
1295.6,2124
1295.6,1953
1295.7,1915
1295.7,1858
1295.7,1706
1295.7,1639
1295.7,1592
1295.8,1421
1295.8,1250
1295.8,1221
1295.8,1326
1295.8,1326
1295.9,1297
1295.9,1269
1295.9,1269
1295.9,1250
1295.9,1221
1296,1183
1296,1278
1296,1468
1296,1810
1296,2276
1296.1,2713
1296.1,3083
1296.1,3330
1296.1,3416
1296.1,3463
1296.2,3482
1296.2,3435
1296.2,3340
1296.2,3207
1296.2,3045
1296.3,2893
1296.3,2817
1296.3,2694
1296.3,2561
1296.3,2485
1296.4,2447
1296.4,2390
1296.4,2323
1296.4,2181
1296.4,1953
1296.5,1801
1296.5,1734
1296.5,1611
1296.5,1449
1296.5,1326
1296.6,1240
1296.6,1183
1296.6,1107
1296.6,1031
1296.6,993
1296.7,917
1296.7,841
1296.7,784
1296.7,699
1296.7,632
1296.8,651
1296.8,718
1296.8,860
1296.8,1107
1296.8,1487
1296.9,1915
1296.9,2266
1296.9,2513
1296.9,2713
1296.9,2903
1297,3007
1297,3007
1297,2988
1297,2969
1297,2931
1297.1,2836
1297.1,2703
1297.1,2570
1297.1,2361
1297.1,2285
1297.2,2285
1297.2,2352
1297.2,2304
1297.2,2285
1297.2,2285
1297.3,2209
1297.3,2114
1297.3,1962
1297.3,1829
1297.3,1715
1297.4,1611
1297.4,1563
1297.4,1516
1297.4,1468
1297.4,1449
1297.5,1402
1297.5,1364
1297.5,1354
1297.5,1402
1297.5,1430
1297.6,1440
1297.6,1497
1297.6,1706
1297.6,2019
1297.6,2273
1297.7,2543
1297.7,2820
1297.7,3000
1297.7,3203
1297.7,3300
1297.8,3330
1297.8,3330
1297.8,3263
1297.8,3188
1297.8,3053
1297.9,2888
1297.9,2813
1297.9,2685
1297.9,2565
1297.9,2535
1298,2558
1298,2498
1298,2415
1298,2340
1298,2220
1298.1,2153
1298.1,2108
1298.1,2055
1298.1,2033
1298.1,2025
1298.2,1950
1298.2,1823
1298.2,1710
1298.2,1590
1298.2,1545
1298.3,1508
1298.3,1485
1298.3,1485
1298.3,1440
1298.3,1403
1298.4,1380
1298.4,1343
1298.4,1365
1298.4,1545
1298.4,1800
1298.5,2055
1298.5,2363
1298.5,2685
1298.5,2985
1298.5,3180
1298.6,3255
1298.6,3285
1298.6,3255
1298.6,3203
1298.6,3143
1298.7,3015
1298.7,2895
1298.7,2745
1298.7,2618
1298.7,2550
1298.8,2505
1298.8,2430
1298.8,2363
1298.8,2310
1298.8,2288
1298.9,2318
1298.9,2310
1298.9,2243
1298.9,2153
1298.9,2070
1299,1928
1299,1778
1299,1688
1299,1628
1299,1620
1299.1,1620
1299.1,1538
1299.1,1440
1299.1,1335
1299.1,1245
1299.2,1238
1299.2,1260
1299.2,1290
1299.2,1328
1299.2,1305
1299.3,1260
1299.3,1238
1299.3,1283
1299.3,1373
1299.3,1568
1299.4,1785
1299.4,2070
1299.4,2445
1299.4,2805
1299.4,3030
1299.5,3165
1299.5,3240
1299.5,3248
1299.5,3203
1299.5,3038
1299.6,2865
1299.6,2723
1299.6,2580
1299.6,2468
1299.6,2445
1299.7,2460
1299.7,2430
1299.7,2340
1299.7,2250
1299.7,2190
1299.8,2168
1299.8,2130
1299.8,2100
1299.8,2063
1299.8,1920
1299.9,1695
1299.9,1583
1299.9,1598
1299.9,1538
1299.9,1433
1300,1395
1300,1388
1300,1335
1300,1275
1300,1298
1300.1,1335
1300.1,1290
1300.1,1200
1300.1,1163
1300.1,1088
1300.2,1020
1300.2,1013
1300.2,1058
1300.2,1133
1300.2,1328
1300.3,1680
1300.3,2070
1300.3,2453
1300.3,2738
1300.3,2933
1300.4,3045
1300.4,3098
1300.4,3143
1300.4,3150
1300.4,3083
1300.5,2978
1300.5,2888
1300.5,2738
1300.5,2625
1300.5,2490
1300.6,2310
1300.6,2243
1300.6,2273
1300.6,2265
1300.6,2213
1300.7,2145
1300.7,2115
1300.7,2108
1300.7,2025
1300.7,1898
1300.8,1808
1300.8,1748
1300.8,1695
1300.8,1635
1300.8,1545
1300.9,1470
1300.9,1403
1300.9,1313
1300.9,1253
1300.9,1200
1301,1148
1301,1178
1301,1208
1301,1223
1301,1215
1301.1,1193
1301.1,1155
1301.1,1208
1301.1,1343
1301.1,1515
1301.2,1755
1301.2,2010
1301.2,2325
1301.2,2633
1301.2,2888
1301.3,3098
1301.3,3278
1301.3,3390
1301.3,3383
1301.3,3315
1301.4,3225
1301.4,3113
1301.4,2940
1301.4,2723
1301.4,2520
1301.5,2415
1301.5,2355
1301.5,2348
1301.5,2385
1301.5,2385
1301.6,2258
1301.6,2085
1301.6,1958
1301.6,1853
1301.6,1830
1301.7,1785
1301.7,1703
1301.7,1613
1301.7,1493
1301.7,1410
1301.8,1380
1301.8,1350
1301.8,1328
1301.8,1275
1301.8,1185
1301.9,1073
1301.9,1043
1301.9,1035
1301.9,1013
1301.9,1035
1302,1080
1302,1178
1302,1380
1302,1755
1302,2100
1302.1,2528
1302.1,2783
1302.1,2955
1302.1,3135
1302.1,3218
1302.2,3173
1302.2,3060
1302.2,2970
1302.2,2843
1302.2,2655
1302.3,2490
1302.3,2408
1302.3,2340
1302.3,2250
1302.3,2168
1302.4,2160
1302.4,2130
1302.4,2108
1302.4,2078
1302.4,2033
1302.5,1920
1302.5,1845
1302.5,1823
1302.5,1785
1302.5,1755
1302.6,1770
1302.6,1740
1302.6,1688
1302.6,1673
1302.6,1650
1302.7,1583
1302.7,1530
1302.7,1440
1302.7,1380
1302.7,1335
1302.8,1365
1302.8,1523
1302.8,1718
1302.8,1973
1302.8,2355
1302.9,2745
1302.9,3053
1302.9,3210
1302.9,3278
1302.9,3308
1303,3308
1303,3225
1303,3068
1303,2858
1303,2663
1303.1,2595
1303.1,2580
1303.1,2513
1303.1,2423
1303.1,2363
1303.2,2265
1303.2,2153
1303.2,2138
1303.2,2160
1303.2,2160
1303.3,2130
1303.3,2063
1303.3,1920
1303.3,1838
1303.3,1800
1303.4,1718
1303.4,1598
1303.4,1523
1303.4,1425
1303.4,1298
1303.5,1223
1303.5,1253
1303.5,1268
1303.5,1268
1303.5,1200
1303.6,1163
1303.6,1238
1303.6,1335
1303.6,1508
1303.6,1755
1303.7,2183
1303.7,2633
1303.7,2985
1303.7,3165
1303.7,3308
1303.8,3458
1303.8,3510
1303.8,3510
1303.8,3420
1303.8,3203
1303.9,3023
1303.9,2933
1303.9,2805
1303.9,2663
1303.9,2618
1304,2603
1304,2565
1304,2483
1304,2423
1304,2363
1304.1,2295
1304.1,2190
1304.1,2055
1304.1,1860
1304.1,1725
1304.2,1613
1304.2,1568
1304.2,1485
1304.2,1418
1304.2,1343
1304.3,1268
1304.3,1215
1304.3,1155
1304.3,1118
1304.3,1065
1304.4,1035
1304.4,1058
1304.4,1148
1304.4,1200
1304.4,1200
1304.5,1200
1304.5,1343
1304.5,1650
1304.5,2025
1304.5,2385
1304.6,2693
1304.6,3008
1304.6,3278
1304.6,3398
1304.6,3398
1304.7,3315
1304.7,3263
1304.7,3195
1304.7,3105
1304.7,2963
1304.8,2798
1304.8,2685
1304.8,2535
1304.8,2408
1304.8,2348
1304.9,2333
1304.9,2295
1304.9,2318
1304.9,2333
1304.9,2295
1305,2168
1305,2063
1305,2018
1305,1943
1305,1845
1305.1,1793
1305.1,1733
1305.1,1605
1305.1,1515
1305.1,1470
1305.2,1500
1305.2,1485
1305.2,1395
1305.2,1313
1305.2,1245
1305.3,1200
1305.3,1193
1305.3,1163
1305.3,1245
1305.3,1365
1305.4,1523
1305.4,1718
1305.4,2018
1305.4,2310
1305.4,2693
1305.5,2970
1305.5,3210
1305.5,3405
1305.5,3488
1305.5,3473
1305.6,3383
1305.6,3270
1305.6,3128
1305.6,2933
1305.6,2745
1305.7,2558
1305.7,2415
1305.7,2318
1305.7,2250
1305.7,2310
1305.8,2355
1305.8,2258
1305.8,2168
1305.8,2123
1305.8,2078
1305.9,2018
1305.9,1950
1305.9,1860
1305.9,1778
1305.9,1628
1306,1463
1306,1305
1306,1238
1306,1238
1306,1215
1306.1,1155
1306.1,1133
1306.1,1125
1306.1,1088
1306.1,1058
1306.2,1073
1306.2,1043
1306.2,1028
1306.2,1103
1306.2,1313
1306.3,1605
1306.3,1943
1306.3,2333
1306.3,2640
1306.3,2895
1306.4,3120
1306.4,3233
1306.4,3218
1306.4,3158
1306.4,3158
1306.5,3075
1306.5,2933
1306.5,2775
1306.5,2535
1306.5,2430
1306.6,2400
1306.6,2303
1306.6,2235
1306.6,2205
1306.6,2175
1306.7,2145
1306.7,2123
1306.7,2108
1306.7,2003
1306.7,1905
1306.8,1778
1306.8,1665
1306.8,1628
1306.8,1583
1306.8,1508
1306.9,1388
1306.9,1283
1306.9,1193
1306.9,1140
1306.9,1065
1307,1020
1307,1043
1307,1043
1307,1050
1307,1050
1307.1,1028
1307.1,1050
1307.1,1260
1307.1,1613
1307.1,1980
1307.2,2325
1307.2,2618
1307.2,2895
1307.2,3128
1307.2,3285
1307.3,3353
1307.3,3323
1307.3,3218
1307.3,3068
1307.3,2850
1307.4,2625
1307.4,2475
1307.4,2378
1307.4,2325
1307.4,2288
1307.5,2250
1307.5,2213
1307.5,2153
1307.5,2115
1307.5,2033
1307.6,1905
1307.6,1890
1307.6,1883
1307.6,1860
1307.6,1793
1307.7,1673
1307.7,1583
1307.7,1485
1307.7,1388
1307.7,1305
1307.8,1245
1307.8,1200
1307.8,1125
1307.8,1013
1307.8,915
1307.9,878
1307.9,915
1307.9,990
1307.9,1095
1307.9,1298
1308,1605
1308,1988
1308,2378
1308,2708
1308,2933
1308.1,3098
1308.1,3158
1308.1,3173
1308.1,3143
1308.1,3075
1308.2,2978
1308.2,2835
1308.2,2655
1308.2,2475
1308.2,2333
1308.3,2303
1308.3,2288
1308.3,2258
1308.3,2175
1308.3,2093
1308.4,2025
1308.4,1958
1308.4,1883
1308.4,1845
1308.4,1830
1308.5,1793
1308.5,1755
1308.5,1725
1308.5,1665
1308.5,1545
1308.6,1448
1308.6,1380
1308.6,1283
1308.6,1215
1308.6,1170
1308.7,1095
1308.7,1110
1308.7,1215
1308.7,1493
1308.7,1853
1308.8,2228
1308.8,2618
1308.8,2903
1308.8,3128
1308.8,3323
1308.9,3488
1308.9,3540
1308.9,3503
1308.9,3383
1308.9,3225
1309,3008
1309,2858
1309,2768
1309,2678
1309,2550
1309.1,2415
1309.1,2273
1309.1,2235
1309.1,2243
1309.1,2190
1309.2,2153
1309.2,2145
1309.2,2115
1309.2,2010
1309.2,1860
1309.3,1740
1309.3,1658
1309.3,1583
1309.3,1463
1309.3,1365
1309.4,1320
1309.4,1283
1309.4,1245
1309.4,1215
1309.4,1148
1309.5,1118
1309.5,1140
1309.5,1170
1309.5,1298
1309.5,1478
1309.6,1740
1309.6,2123
1309.6,2535
1309.6,2918
1309.6,3195
1309.7,3345
1309.7,3443
1309.7,3495
1309.7,3495
1309.7,3398
1309.8,3210
1309.8,3015
1309.8,2858
1309.8,2708
1309.8,2580
1309.9,2460
1309.9,2423
1309.9,2393
1309.9,2348
1309.9,2250
1310,2138
1310,2018
1310,1950
1310,1845
1310,1725
1310.1,1643
1310.1,1560
1310.1,1523
1310.1,1463
1310.1,1418
1310.2,1380
1310.2,1298
1310.2,1238
1310.2,1155
1310.2,1073
1310.3,998
1310.3,915
1310.3,885
1310.3,938
1310.3,1050
1310.4,1178
1310.4,1470
1310.4,1950
1310.4,2400
1310.4,2790
1310.5,3060
1310.5,3285
1310.5,3443
1310.5,3480
1310.5,3383
1310.6,3210
1310.6,3030
1310.6,2865
1310.6,2670
1310.6,2490
1310.7,2363
1310.7,2288
1310.7,2220
1310.7,2213
1310.7,2235
1310.8,2273
1310.8,2280
1310.8,2213
1310.8,2130
1310.8,2025
1310.9,1905
1310.9,1778
1310.9,1673
1310.9,1560
1310.9,1433
1311,1298
1311,1185
1311,1088
1311,983
1311,878
1311.1,810
1311.1,863
1311.1,900
1311.1,900
1311.1,900
1311.2,930
1311.2,990
1311.2,1155
1311.2,1455
1311.2,1830
1311.3,2280
1311.3,2670
1311.3,3008
1311.3,3308
1311.3,3428
1311.4,3428
1311.4,3353
1311.4,3248
1311.4,3143
1311.4,2873
1311.5,2625
1311.5,2363
1311.5,2153
1311.5,2115
1311.5,2085
1311.6,2070
1311.6,2048
1311.6,2025
1311.6,1913
1311.6,1823
1311.7,1793
1311.7,1763
1311.7,1673
1311.7,1590
1311.7,1455
1311.8,1328
1311.8,1253
1311.8,1170
1311.8,1148
1311.8,1133
1311.9,1073
1311.9,998
1311.9,983
1311.9,975
1311.9,908
1312,878
1312,870
1312,893
1312,998
1312,1185
1312.1,1455
1312.1,1793
1312.1,2168
1312.1,2550
1312.1,2858
1312.2,3068
1312.2,3180
1312.2,3165
1312.2,3090
1312.2,2970
1312.3,2835
1312.3,2738
1312.3,2595
1312.3,2423
1312.3,2295
1312.4,2265
1312.4,2243
1312.4,2235
1312.4,2235
1312.4,2205
1312.5,2130
1312.5,2063
1312.5,1995
1312.5,1935
1312.5,1905
1312.6,1853
1312.6,1718
1312.6,1635
1312.6,1613
1312.6,1605
1312.7,1500
1312.7,1388
1312.7,1290
1312.7,1260
1312.7,1328
1312.8,1290
1312.8,1163
1312.8,1178
1312.8,1320
1312.8,1523
1312.9,1748
1312.9,2025
1312.9,2475
1312.9,2873
1312.9,3128
1313,3315
1313,3443
1313,3473
1313,3443
1313,3338
1313.1,3203
1313.1,3083
1313.1,2910
1313.1,2760
1313.1,2633
1313.2,2520
1313.2,2453
1313.2,2400
1313.2,2325
1313.2,2250
1313.3,2198
1313.3,2153
1313.3,2078
1313.3,1958
1313.3,1920
1313.4,1905
1313.4,1853
1313.4,1755
1313.4,1688
1313.4,1598
1313.5,1463
1313.5,1380
1313.5,1320
1313.5,1320
1313.5,1230
1313.6,1185
1313.6,1200
1313.6,1208
1313.6,1223
1313.6,1268
1313.7,1403
1313.7,1680
1313.7,2048
1313.7,2445
1313.7,2805
1313.8,3105
1313.8,3330
1313.8,3458
1313.8,3473
1313.8,3420
1313.9,3308
1313.9,3098
1313.9,2895
1313.9,2685
1313.9,2550
1314,2460
1314,2303
1314,2190
1314,2205
1314,2190
1314.1,2175
1314.1,2145
1314.1,2145
1314.1,2108
1314.1,2040
1314.2,1988
1314.2,1898
1314.2,1793
1314.2,1710
1314.2,1590
1314.3,1433
1314.3,1335
1314.3,1245
1314.3,1140
1314.3,1140
1314.4,1185
1314.4,1193
1314.4,1163
1314.4,1140
1314.4,1080
1314.5,1043
1314.5,1058
1314.5,1095
1314.5,1080
1314.5,1073
1314.6,1223
1314.6,1545
1314.6,1958
1314.6,2288
1314.6,2573
1314.7,2873
1314.7,3143
1314.7,3285
1314.7,3315
1314.7,3278
1314.8,3218
1314.8,3105
1314.8,3000
1314.8,2858
1314.8,2715
1314.9,2535
1314.9,2393
1314.9,2325
1314.9,2325
1314.9,2363
1315,2318
1315,2235
1315,2138
1315,2123
1315,2085
1315.1,2078
1315.1,2063
1315.1,1958
1315.1,1770
1315.1,1635
1315.2,1530
1315.2,1418
1315.2,1283
1315.2,1208
1315.2,1223
1315.3,1140
1315.3,1065
1315.3,1050
1315.3,1035
1315.3,1035
1315.4,1013
1315.4,983
1315.4,930
1315.4,960
1315.4,1050
1315.5,1088
1315.5,1223
1315.5,1508
1315.5,1860
1315.5,2213
1315.6,2453
1315.6,2730
1315.6,2948
1315.6,3090
1315.6,3158
1315.7,3195
1315.7,3210
1315.7,3143
1315.7,3015
1315.7,2850
1315.8,2655
1315.8,2505
1315.8,2355
1315.8,2303
1315.8,2235
1315.9,2153
1315.9,2078
1315.9,2025
1315.9,1943
1315.9,1868
1316,1868
1316,1935
1316,1868
1316,1785
1316,1755
1316.1,1695
1316.1,1658
1316.1,1583
1316.1,1515
1316.1,1395
1316.2,1245
1316.2,1170
1316.2,1148
1316.2,1178
1316.2,1200
1316.3,1185
1316.3,1185
1316.3,1178
1316.3,1178
1316.3,1133
1316.4,1125
1316.4,1223
1316.4,1410
1316.4,1785
1316.4,2093
1316.5,2325
1316.5,2520
1316.5,2678
1316.5,2760
1316.5,2775
1316.6,2783
1316.6,2775
1316.6,2715
1316.6,2618
1316.6,2513
1316.7,2355
1316.7,2235
1316.7,2130
1316.7,2078
1316.7,2070
1316.8,2048
1316.8,2063
1316.8,2093
1316.8,2078
1316.8,2070
1316.9,2010
1316.9,1928
1316.9,1838
1316.9,1830
1316.9,1748
1317,1628
1317,1583
1317,1553
1317,1508
1317,1448
1317.1,1418
1317.1,1388
1317.1,1343
1317.1,1290
1317.1,1230
1317.2,1215
1317.2,1200
1317.2,1185
1317.2,1328
1317.2,1635
1317.3,1988
1317.3,2318
1317.3,2595
1317.3,2858
1317.3,3023
1317.4,3060
1317.4,3008
1317.4,3000
1317.4,3045
1317.4,3000
1317.5,2858
1317.5,2738
1317.5,2648
1317.5,2633
1317.5,2558
1317.6,2490
1317.6,2468
1317.6,2460
1317.6,2438
1317.6,2378
1317.7,2348
1317.7,2303
1317.7,2205
1317.7,2085
1317.7,2033
1317.8,1965
1317.8,1875
1317.8,1838
1317.8,1778
1317.8,1710
1317.9,1643
1317.9,1575
1317.9,1500
1317.9,1455
1317.9,1418
1318,1343
1318,1268
1318,1215
1318,1215
1318,1343
1318.1,1575
1318.1,1845
1318.1,2183
1318.1,2505
1318.1,2753
1318.2,2925
1318.2,3083
1318.2,3203
1318.2,3225
1318.2,3173
1318.3,3113
1318.3,3000
1318.3,2873
1318.3,2768
1318.3,2595
1318.4,2445
1318.4,2318
1318.4,2258
1318.4,2243
1318.4,2243
1318.5,2288
1318.5,2333
1318.5,2325
1318.5,2190
1318.5,1973
1318.6,1823
1318.6,1778
1318.6,1755
1318.6,1703
1318.6,1673
1318.7,1718
1318.7,1680
1318.7,1650
1318.7,1658
1318.7,1560
1318.8,1470
1318.8,1455
1318.8,1410
1318.8,1365
1318.8,1358
1318.9,1328
1318.9,1403
1318.9,1568
1318.9,1733
1318.9,2003
1319,2325
1319,2603
1319,2805
1319,2918
1319,2948
1319.1,2940
1319.1,2978
1319.1,2985
1319.1,2895
1319.1,2783
1319.2,2708
1319.2,2648
1319.2,2535
1319.2,2430
1319.2,2333
1319.3,2243
1319.3,2250
1319.3,2288
1319.3,2303
1319.3,2325
1319.4,2303
1319.4,2220
1319.4,2130
1319.4,2003
1319.4,1898
1319.5,1755
1319.5,1635
1319.5,1575
1319.5,1598
1319.5,1628
1319.6,1605
1319.6,1493
1319.6,1395
1319.6,1350
1319.6,1298
1319.7,1253
1319.7,1230
1319.7,1283
1319.7,1290
1319.7,1328
1319.8,1500
1319.8,1695
1319.8,1913
1319.8,2205
1319.8,2505
1319.9,2708
1319.9,2873
1319.9,3015
1319.9,3090
1319.9,3083
1320,3068
1320,2993
1320,2865
1320,2775
1320,2685
1320.1,2520
1320.1,2355
1320.1,2280
1320.1,2250
1320.1,2288
1320.2,2310
1320.2,2273
1320.2,2168
1320.2,2040
1320.2,1935
1320.3,1875
1320.3,1860
1320.3,1845
1320.3,1838
1320.3,1785
1320.4,1665
1320.4,1545
1320.4,1448
1320.4,1365
1320.4,1238
1320.5,1185
1320.5,1148
1320.5,1193
1320.5,1245
1320.5,1245
1320.6,1238
1320.6,1193
1320.6,1185
1320.6,1223
1320.6,1343
1320.7,1515
1320.7,1793
1320.7,2123
1320.7,2385
1320.7,2610
1320.8,2768
1320.8,2865
1320.8,2798
1320.8,2760
1320.8,2753
1320.9,2715
1320.9,2663
1320.9,2573
1320.9,2430
1320.9,2318
1321,2250
1321,2220
1321,2175
1321,2115
1321,2010
1321.1,1935
1321.1,1950
1321.1,1965
1321.1,2018
1321.1,2018
1321.2,1988
1321.2,1935
1321.2,1868
1321.2,1815
1321.2,1800
1321.3,1733
1321.3,1620
1321.3,1590
1321.3,1613
1321.3,1560
1321.4,1545
1321.4,1523
1321.4,1485
1321.4,1485
1321.4,1478
1321.5,1515
1321.5,1665
1321.5,1838
1321.5,2108
1321.5,2355
1321.6,2685
1321.6,2955
1321.6,3135
1321.6,3255
1321.6,3315
1321.7,3338
1321.7,3293
1321.7,3225
1321.7,3105
1321.7,2948
1321.8,2790
1321.8,2678
1321.8,2558
1321.8,2498
1321.8,2475
1321.9,2430
1321.9,2415
1321.9,2408
1321.9,2378
1321.9,2303
1322,2228
1322,2145
1322,2063
1322,1988
1322,1988
1322.1,1943
1322.1,1875
1322.1,1823
1322.1,1770
1322.1,1725
1322.2,1680
1322.2,1605
1322.2,1538
1322.2,1500
1322.2,1433
1322.3,1388
1322.3,1358
1322.3,1343
1322.3,1418
1322.3,1560
1322.4,1778
1322.4,2033
1322.4,2333
1322.4,2625
1322.4,2843
1322.5,3045
1322.5,3203
1322.5,3263
1322.5,3278
1322.5,3203
1322.6,3113
1322.6,3015
1322.6,2880
1322.6,2760
1322.6,2708
1322.7,2708
1322.7,2625
1322.7,2528
1322.7,2513
1322.7,2438
1322.8,2325
1322.8,2213
1322.8,2183
1322.8,2138
1322.8,2100
1322.9,2025
1322.9,1943
1322.9,1868
1322.9,1815
1322.9,1778
1323,1725
1323,1635
1323,1545
1323,1515
1323,1470
1323.1,1425
1323.1,1410
1323.1,1350
1323.1,1245
1323.1,1148
1323.2,1110
1323.2,1110
1323.2,1178
1323.2,1365
1323.2,1628
1323.3,1943
1323.3,2235
1323.3,2528
1323.3,2813
1323.3,3015
1323.4,3113
1323.4,3128
1323.4,3075
1323.4,3015
1323.4,2918
1323.5,2715
1323.5,2558
1323.5,2415
1323.5,2348
1323.5,2303
1323.6,2198
1323.6,2168
1323.6,2243
1323.6,2265
1323.6,2228
1323.7,2153
1323.7,2108
1323.7,2070
1323.7,2048
1323.7,1988
1323.8,1875
1323.8,1763
1323.8,1695
1323.8,1658
1323.8,1568
1323.9,1493
1323.9,1418
1323.9,1358
1323.9,1335
1323.9,1298
1324,1260
1324,1260
1324,1245
1324,1253
1324,1283
1324.1,1343
1324.1,1350
1324.1,1478
1324.1,1763
1324.1,2078
1324.2,2333
1324.2,2558
1324.2,2648
1324.2,2745
1324.2,2790
1324.3,2753
1324.3,2670
1324.3,2573
1324.3,2423
1324.3,2355
1324.4,2243
1324.4,2175
1324.4,2108
1324.4,2010
1324.4,1943
1324.5,1943
1324.5,1958
1324.5,1928
1324.5,1815
1324.5,1718
1324.6,1710
1324.6,1763
1324.6,1800
1324.6,1748
1324.6,1620
1324.7,1568
1324.7,1568
1324.7,1530
1324.7,1470
1324.7,1425
1324.8,1418
1324.8,1425
1324.8,1470
1324.8,1478
1324.8,1448
1324.9,1358
1324.9,1343
1324.9,1343
1324.9,1395
1324.9,1523
1325,1733
1325,2048
1325,2415
1325,2760
1325,2970
1325.1,3038
1325.1,3113
1325.1,3128
1325.1,3053
1325.1,2955
1325.2,2843
1325.2,2700
1325.2,2573
1325.2,2423
1325.2,2310
1325.3,2288
1325.3,2273
1325.3,2220
1325.3,2190
1325.3,2145
1325.4,2115
1325.4,2138
1325.4,2205
1325.4,2250
1325.4,2280
1325.5,2258
1325.5,2168
1325.5,2063
1325.5,1995
1325.5,1950
1325.6,1860
1325.6,1770
1325.6,1748
1325.6,1703
1325.6,1665
1325.7,1635
1325.7,1613
1325.7,1590
1325.7,1575
1325.7,1688
1325.8,1913
1325.8,2288
1325.8,2573
1325.8,2783
1325.8,3000
1325.9,3210
1325.9,3338
1325.9,3360
1325.9,3375
1325.9,3375
1326,3293
1326,3128
1326,2933
1326,2738
1326,2610
1326.1,2543
1326.1,2430
1326.1,2415
1326.1,2400
1326.1,2385
1326.2,2385
1326.2,2333
1326.2,2250
1326.2,2220
1326.2,2228
1326.3,2183
1326.3,2100
1326.3,2025
1326.3,1943
1326.3,1883
1326.4,1800
1326.4,1680
1326.4,1553
1326.4,1470
1326.4,1455
1326.5,1410
1326.5,1425
1326.5,1425
1326.5,1410
1326.5,1388
1326.6,1365
1326.6,1418
1326.6,1673
1326.6,2063
1326.6,2423
1326.7,2715
1326.7,3045
1326.7,3165
1326.7,3233
1326.7,3285
1326.8,3248
1326.8,3203
1326.8,3173
1326.8,3120
1326.8,2948
1326.9,2760
1326.9,2648
1326.9,2558
1326.9,2453
1326.9,2423
1327,2438
1327,2400
1327,2333
1327,2295
1327,2250
1327.1,2220
1327.1,2153
1327.1,2055
1327.1,1980
1327.1,1920
1327.2,1815
1327.2,1695
1327.2,1650
1327.2,1605
1327.2,1575
1327.3,1478
1327.3,1380
1327.3,1343
1327.3,1335
1327.3,1305
1327.4,1245
1327.4,1215
1327.4,1283
1327.4,1418
1327.4,1635
1327.5,1898
1327.5,2228
1327.5,2558
1327.5,2873
1327.5,3098
1327.6,3188
1327.6,3195
1327.6,3150
1327.6,3090
1327.6,3015
1327.7,2933
1327.7,2865
1327.7,2775
1327.7,2603
1327.7,2475
1327.8,2393
1327.8,2363
1327.8,2310
1327.8,2220
1327.8,2168
1327.9,2115
1327.9,2070
1327.9,2010
1327.9,1913
1327.9,1845
1328,1755
1328,1673
1328,1568
1328,1463
1328,1365
1328.1,1245
1328.1,1185
1328.1,1148
1328.1,1110
1328.1,1080
1328.2,1050
1328.2,1050
1328.2,1073
1328.2,1065
1328.2,1080
1328.3,1185
1328.3,1410
1328.3,1695
1328.3,1988
1328.3,2258
1328.4,2475
1328.4,2625
1328.4,2775
1328.4,2865
1328.4,2888
1328.5,2805
1328.5,2678
1328.5,2565
1328.5,2490
1328.5,2415
1328.6,2355
1328.6,2280
1328.6,2228
1328.6,2160
1328.6,2115
1328.7,2085
1328.7,2018
1328.7,2003
1328.7,2040
1328.7,2033
1328.8,1973
1328.8,1905
1328.8,1838
1328.8,1808
1328.8,1725
1328.9,1598
1328.9,1545
1328.9,1538
1328.9,1553
1328.9,1538
1329,1440
1329,1410
1329,1410
1329,1395
1329,1425
1329.1,1493
1329.1,1590
1329.1,1725
1329.1,1973
1329.1,2288
1329.2,2573
1329.2,2805
1329.2,2963
1329.2,3068
1329.2,3105
1329.3,3068
1329.3,3015
1329.3,2895
1329.3,2820
1329.3,2790
1329.4,2715
1329.4,2550
1329.4,2468
1329.4,2453
1329.4,2468
1329.5,2460
1329.5,2415
1329.5,2363
1329.5,2318
1329.5,2228
1329.6,2138
1329.6,2055
1329.6,2040
1329.6,2033
1329.6,1928
1329.7,1830
1329.7,1763
1329.7,1695
1329.7,1553
1329.7,1418
1329.8,1410
1329.8,1395
1329.8,1388
1329.8,1305
1329.8,1178
1329.9,1133
1329.9,1208
1329.9,1283
1329.9,1425
1329.9,1613
1330,1845
1330,2168
1330,2498
1330,2678
1330,2865
1330.1,2985
1330.1,2970
1330.1,2963
1330.1,3000
1330.1,2963
1330.2,2918
1330.2,2835
1330.2,2730
1330.2,2655
1330.2,2573
1330.3,2490
1330.3,2430
1330.3,2393
1330.3,2363
1330.3,2318
1330.4,2250
1330.4,2168
1330.4,2100
1330.4,2025
1330.4,1958
1330.5,1890
1330.5,1890
1330.5,1853
1330.5,1778
1330.5,1650
1330.6,1553
1330.6,1515
1330.6,1493
1330.6,1440
1330.6,1395
1330.7,1373
1330.7,1358
1330.7,1305
1330.7,1223
1330.7,1230
1330.8,1290
1330.8,1395
1330.8,1530
1330.8,1718
1330.8,1935
1330.9,2213
1330.9,2535
1330.9,2730
1330.9,2835
1330.9,2910
1331,2910
1331,2888
1331,2880
1331,2850
1331,2760
1331.1,2618
1331.1,2505
1331.1,2438
1331.1,2385
1331.1,2348
1331.2,2325
1331.2,2295
1331.2,2220
1331.2,2160
1331.2,2063
1331.3,2018
1331.3,2040
1331.3,2003
1331.3,1928
1331.3,1793
1331.4,1643
1331.4,1560
1331.4,1515
1331.4,1508
1331.4,1403
1331.5,1358
1331.5,1358
1331.5,1305
1331.5,1223
1331.5,1140
1331.6,1118
1331.6,1133
1331.6,1155
1331.6,1118
1331.6,1080
1331.7,1088
1331.7,1200
1331.7,1418
1331.7,1695
1331.7,1995
1331.8,2288
1331.8,2535
1331.8,2655
1331.8,2700
1331.8,2708
1331.9,2625
1331.9,2558
1331.9,2483
1331.9,2378
1331.9,2325
1332,2288
1332,2220
1332,2130
1332,2055
1332,2003
1332.1,1973
1332.1,1995
1332.1,2033
1332.1,2010
1332.1,1913
1332.2,1770
1332.2,1755
1332.2,1778
1332.2,1710
1332.2,1650
1332.3,1575
1332.3,1493
1332.3,1448
1332.3,1395
1332.3,1335
1332.4,1298
1332.4,1230
1332.4,1185
1332.4,1208
1332.4,1230
1332.5,1223
1332.5,1193
1332.5,1185
1332.5,1283
1332.5,1425
1332.6,1650
1332.6,1965
1332.6,2205
1332.6,2393
1332.6,2498
1332.7,2580
1332.7,2640
1332.7,2655
1332.7,2625
1332.7,2550
1332.8,2445
1332.8,2385
1332.8,2295
1332.8,2213
1332.8,2190
1332.9,2160
1332.9,2175
1332.9,2183
1332.9,2145
1332.9,2093
1333,2093
1333,2115
1333,2078
1333,2003
1333,1950
1333.1,1905
1333.1,1815
1333.1,1695
1333.1,1643
1333.1,1590
1333.2,1590
1333.2,1628
1333.2,1583
1333.2,1470
1333.2,1350
1333.3,1335
1333.3,1373
1333.3,1373
1333.3,1403
1333.3,1530
1333.4,1718
1333.4,1958
1333.4,2265
1333.4,2535
1333.4,2723
1333.5,2873
1333.5,2978
1333.5,3008
1333.5,3015
1333.5,3008
1333.6,2970
1333.6,2865
1333.6,2783
1333.6,2678
1333.6,2565
1333.7,2520
1333.7,2535
1333.7,2520
1333.7,2415
1333.7,2355
1333.8,2385
1333.8,2385
1333.8,2333
1333.8,2265
1333.8,2228
1333.9,2213
1333.9,2183
1333.9,2078
1333.9,2025
1333.9,1950
1334,1800
1334,1673
1334,1583
1334,1508
1334,1433
1334.1,1440
1334.1,1515
1334.1,1598
1334.1,1620
1334.1,1553
1334.2,1508
1334.2,1530
1334.2,1583
1334.2,1680
1334.2,1905
1334.3,2190
1334.3,2460
1334.3,2655
1334.3,2820
1334.3,2918
1334.4,2880
1334.4,2835
1334.4,2805
1334.4,2753
1334.4,2655
1334.5,2558
1334.5,2460
1334.5,2393
1334.5,2378
1334.5,2423
1334.6,2460
1334.6,2430
1334.6,2370
1334.6,2273
1334.6,2213
1334.7,2213
1334.7,2115
1334.7,2055
1334.7,2063
1334.7,2033
1334.8,1935
1334.8,1905
1334.8,1830
1334.8,1770
1334.8,1740
1334.9,1620
1334.9,1590
1334.9,1560
1334.9,1448
1334.9,1343
1335,1365
1335,1388
1335,1380
1335,1403
1335,1440
1335.1,1440
1335.1,1455
1335.1,1598
1335.1,1845
1335.1,2123
1335.2,2355
1335.2,2490
1335.2,2648
1335.2,2828
1335.2,2955
1335.3,3000
1335.3,3008
1335.3,2955
1335.3,2895
1335.3,2835
1335.4,2760
1335.4,2663
1335.4,2528
1335.4,2498
1335.4,2505
1335.5,2475
1335.5,2393
1335.5,2355
1335.5,2318
1335.5,2273
1335.6,2228
1335.6,2145
1335.6,2115
1335.6,2138
1335.6,2145
1335.7,2108
1335.7,2078
1335.7,2010
1335.7,1928
1335.7,1815
1335.8,1718
1335.8,1695
1335.8,1643
1335.8,1583
1335.8,1493
1335.9,1380
1335.9,1380
1335.9,1440
1335.9,1530
1335.9,1575
1336,1643
1336,1793
1336,2018
1336,2325
1336,2588
1336.1,2805
1336.1,2993
1336.1,3090
1336.1,3105
1336.1,3128
1336.2,3105
1336.2,3030
1336.2,2888
1336.2,2828
1336.2,2835
1336.3,2805
1336.3,2753
1336.3,2685
1336.3,2603
1336.3,2528
1336.4,2475
1336.4,2460
1336.4,2408
1336.4,2273
1336.4,2123
1336.5,2093
1336.5,2078
1336.5,1973
1336.5,1875
1336.5,1778
1336.6,1703
1336.6,1598
1336.6,1538
1336.6,1568
1336.6,1590
1336.7,1523
1336.7,1425
1336.7,1440
1336.7,1425
1336.7,1305
1336.8,1230
1336.8,1215
1336.8,1268
1336.8,1380
1336.8,1553
1336.9,1770
1336.9,2003
1336.9,2273
1336.9,2543
1336.9,2798
1337,3023
1337,3128
1337,3105
1337,3030
1337,2895
1337.1,2805
1337.1,2730
1337.1,2588
1337.1,2430
1337.1,2340
1337.2,2265
1337.2,2295
1337.2,2318
1337.2,2310
1337.2,2205
1337.3,2145
1337.3,2168
1337.3,2213
1337.3,2213
1337.3,2130
1337.4,2010
1337.4,1913
1337.4,1868
1337.4,1793
1337.4,1725
1337.5,1680
1337.5,1650
1337.5,1628
1337.5,1650
1337.5,1665
1337.6,1658
1337.6,1650
1337.6,1650
1337.6,1725
1337.6,1905
1337.7,2115
1337.7,2363
1337.7,2588
1337.7,2790
1337.7,2933
1337.8,2978
1337.8,2985
1337.8,2978
1337.8,2970
1337.8,2963
1337.9,2933
1337.9,2850
1337.9,2745
1337.9,2663
1337.9,2610
1338,2595
1338,2505
1338,2370
1338,2340
1338,2325
1338.1,2250
1338.1,2198
1338.1,2100
1338.1,1995
1338.1,1913
1338.2,1853
1338.2,1875
1338.2,1853
1338.2,1808
1338.2,1703
1338.3,1635
1338.3,1590
1338.3,1523
1338.3,1478
1338.3,1388
1338.4,1320
1338.4,1260
1338.4,1290
1338.4,1425
1338.4,1598
1338.5,1898
1338.5,2250
1338.5,2625
1338.5,2880
1338.5,3135
1338.6,3285
1338.6,3308
1338.6,3225
1338.6,3210
1338.6,3128
1338.7,2985
1338.7,2873
1338.7,2760
1338.7,2633
1338.7,2513
1338.8,2438
1338.8,2378
1338.8,2393
1338.8,2468
1338.8,2400
1338.9,2318
1338.9,2295
1338.9,2235
1338.9,2160
1338.9,2063
1339,1935
1339,1838
1339,1740
1339,1613
1339,1515
1339.1,1448
1339.1,1373
1339.1,1350
1339.1,1373
1339.1,1373
1339.2,1335
1339.2,1268
1339.2,1125
1339.2,1028
1339.2,1028
1339.3,1095
1339.3,1268
1339.3,1590
1339.3,1965
1339.3,2288
1339.4,2603
1339.4,2880
1339.4,3060
1339.4,3143
1339.4,3210
1339.5,3218
1339.5,3203
1339.5,3135
1339.5,2940
1339.5,2715
1339.6,2588
1339.6,2475
1339.6,2453
1339.6,2468
1339.6,2438
1339.7,2400
1339.7,2348
1339.7,2310
1339.7,2280
1339.7,2205
1339.8,2093
1339.8,2018
1339.8,1928
1339.8,1823
1339.8,1755
1339.9,1703
1339.9,1643
1339.9,1545
1339.9,1448
1339.9,1380
1340,1275
1340,1185
1340,1178
1340,1178
1340,1163
1340.1,1148
1340.1,1125
1340.1,1065
1340.1,1073
1340.1,1185
1340.2,1463
1340.2,1748
1340.2,2025
1340.2,2280
1340.2,2543
1340.3,2835
1340.3,3098
1340.3,3225
1340.3,3240
1340.3,3165
1340.4,3068
1340.4,2970
1340.4,2820
1340.4,2738
1340.4,2595
1340.5,2490
1340.5,2453
1340.5,2355
1340.5,2280
1340.5,2235
1340.6,2228
1340.6,2213
1340.6,2153
1340.6,2003
1340.6,1830
1340.7,1755
1340.7,1740
1340.7,1710
1340.7,1665
1340.7,1613
1340.8,1575
1340.8,1515
1340.8,1448
1340.8,1425
1340.8,1433
1340.9,1388
1340.9,1373
1340.9,1380
1340.9,1328
1340.9,1230
1341,1208
1341,1230
1341,1260
1341,1253
1341,1328
1341.1,1538
1341.1,1853
1341.1,2168
1341.1,2483
1341.1,2753
1341.2,2993
1341.2,3135
1341.2,3225
1341.2,3248
1341.2,3233
1341.3,3135
1341.3,3008
1341.3,2903
1341.3,2775
1341.3,2655
1341.4,2573
1341.4,2438
1341.4,2325
1341.4,2295
1341.4,2288
1341.5,2235
1341.5,2183
1341.5,2153
1341.5,2168
1341.5,2145
1341.6,2063
1341.6,1965
1341.6,1823
1341.6,1680
1341.6,1553
1341.7,1455
1341.7,1373
1341.7,1305
1341.7,1230
1341.7,1155
1341.8,1125
1341.8,1178
1341.8,1185
1341.8,1155
1341.8,1080
1341.9,998
1341.9,1005
1341.9,1110
1341.9,1223
1341.9,1395
1342,1620
1342,1965
1342,2348
1342,2618
1342,2760
1342.1,2940
1342.1,3120
1342.1,3195
1342.1,3143
1342.1,3045
1342.2,2955
1342.2,2865
1342.2,2730
1342.2,2640
1342.2,2513
1342.3,2430
1342.3,2370
1342.3,2355
1342.3,2348
1342.3,2340
1342.4,2340
1342.4,2273
1342.4,2198
1342.4,2183
1342.4,2138
1342.5,2025
1342.5,1928
1342.5,1830
1342.5,1770
1342.5,1688
1342.6,1583
1342.6,1523
1342.6,1500
1342.6,1410
1342.6,1305
1342.7,1268
1342.7,1238
1342.7,1155
1342.7,1073
1342.7,1073
1342.8,1125
1342.8,1298
1342.8,1530
1342.8,1838
1342.8,2198
1342.9,2588
1342.9,2940
1342.9,3173
1342.9,3323
1342.9,3413
1343,3383
1343,3345
1343,3278
1343,3113
1343,2903
1343.1,2693
1343.1,2580
1343.1,2445
1343.1,2378
1343.1,2445
1343.2,2490
1343.2,2430
1343.2,2310
1343.2,2265
1343.2,2220
1343.3,2138
1343.3,2115
1343.3,2070
1343.3,1965
1343.3,1838
1343.4,1725
1343.4,1643
1343.4,1560
1343.4,1493
1343.4,1418
1343.5,1320
1343.5,1260
1343.5,1245
1343.5,1223
1343.5,1155
1343.6,1125
1343.6,1148
1343.6,1133
1343.6,1125
1343.6,1133
1343.7,1253
1343.7,1448
1343.7,1883
1343.7,2258
1343.7,2700
1343.8,3000
1343.8,3263
1343.8,3443
1343.8,3540
1343.8,3570
1343.9,3570
1343.9,3450
1343.9,3300
1343.9,3105
1343.9,2843
1344,2670
1344,2565
1344,2453
1344,2400
1344,2355
1344.1,2288
1344.1,2295
1344.1,2310
1344.1,2250
1344.1,2153
1344.2,2010
1344.2,1853
1344.2,1680
1344.2,1613
1344.2,1575
1344.3,1575
1344.3,1545
1344.3,1478
1344.3,1433
1344.3,1395
1344.4,1418
1344.4,1403
1344.4,1343
1344.4,1283
1344.4,1260
1344.5,1230
1344.5,1193
1344.5,1140
1344.5,1178
1344.5,1335
1344.6,1628
1344.6,2010
1344.6,2438
1344.6,2790
1344.6,3143
1344.7,3345
1344.7,3450
1344.7,3473
1344.7,3398
1344.7,3248
1344.8,3098
1344.8,2993
1344.8,2888
1344.8,2760
1344.8,2573
1344.9,2460
1344.9,2393
1344.9,2385
1344.9,2370
1344.9,2340
1345,2310
1345,2303
1345,2265
1345,2138
1345,1973
1345.1,1860
1345.1,1785
1345.1,1695
1345.1,1560
1345.1,1448
1345.2,1410
1345.2,1335
1345.2,1238
1345.2,1208
1345.2,1253
1345.3,1343
1345.3,1485
1345.3,1673
1345.3,1928
1345.3,2280
1345.4,2633
1345.4,2955
1345.4,3150
1345.4,3263
1345.4,3285
1345.5,3173
1345.5,3023
1345.5,2880
1345.5,2730
1345.5,2610
1345.6,2483
1345.6,2325
1345.6,2228
1345.6,2175
1345.6,2153
1345.7,2115
1345.7,2123
1345.7,2130
1345.7,2100
1345.7,2063
1345.8,1995
1345.8,1853
1345.8,1733
1345.8,1620
1345.8,1530
1345.9,1433
1345.9,1373
1345.9,1335
1345.9,1238
1345.9,1103
1346,1005
1346,960
1346,990
1346,1088
1346,1305
1346.1,1545
1346.1,1860
1346.1,2243
1346.1,2640
1346.1,2963
1346.2,3225
1346.2,3390
1346.2,3428
1346.2,3383
1346.2,3293
1346.3,3143
1346.3,2948
1346.3,2768
1346.3,2618
1346.3,2468
1346.4,2393
1346.4,2318
1346.4,2235
1346.4,2250
1346.4,2250
1346.5,2243
1346.5,2213
1346.5,2130
1346.5,1995
1346.5,1800
1346.6,1598
1346.6,1500
1346.6,1425
1346.6,1410
1346.6,1388
1346.7,1343
1346.7,1320
1346.7,1313
1346.7,1260
1346.7,1200
1346.8,1163
1346.8,1103
1346.8,1088
1346.8,1230
1346.8,1493
1346.9,1853
1346.9,2280
1346.9,2715
1346.9,3045
1346.9,3263
1347,3368
1347,3443
1347,3435
1347,3338
1347,3195
1347.1,3030
1347.1,2828
1347.1,2685
1347.1,2558
1347.1,2385
1347.2,2303
1347.2,2310
1347.2,2265
1347.2,2205
1347.2,2183
1347.3,2168
1347.3,2093
1347.3,1928
1347.3,1748
1347.3,1665
1347.4,1635
1347.4,1605
1347.4,1523
1347.4,1373
1347.4,1215
1347.5,1103
1347.5,1073
1347.5,1035
1347.5,1013
1347.5,983
1347.6,983
1347.6,953
1347.6,900
1347.6,990
1347.6,1200
1347.7,1545
1347.7,2018
1347.7,2468
1347.7,2798
1347.7,3000
1347.8,3203
1347.8,3315
1347.8,3338
1347.8,3255
1347.8,3083
1347.9,2970
1347.9,2798
1347.9,2558
1347.9,2355
1347.9,2303
1348,2265
1348,2258
1348,2258
1348,2198
1348,2145
1348.1,2048
1348.1,1980
1348.1,1958
1348.1,1950
1348.1,1920
1348.2,1853
1348.2,1718
1348.2,1590
1348.2,1530
1348.2,1463
1348.3,1365
1348.3,1253
1348.3,1185
1348.3,1178
1348.3,1193
1348.4,1155
1348.4,1103
1348.4,1185
1348.4,1410
1348.4,1703
1348.5,2093
1348.5,2468
1348.5,2798
1348.5,3083
1348.5,3375
1348.6,3428
1348.6,3398
1348.6,3375
1348.6,3293
1348.6,3158
1348.7,3008
1348.7,2850
1348.7,2715
1348.7,2633
1348.7,2603
1348.8,2558
1348.8,2468
1348.8,2385
1348.8,2340
1348.8,2310
1348.9,2235
1348.9,2168
1348.9,2025
1348.9,1838
1348.9,1748
1349,1643
1349,1508
1349,1433
1349,1373
1349,1320
1349.1,1245
1349.1,1133
1349.1,1043
1349.1,953
1349.1,998
1349.2,1005
1349.2,915
1349.2,885
1349.2,983
1349.2,1230
1349.3,1605
1349.3,2084
1349.3,2426
1349.3,2696
1349.3,2906
1349.4,3026
1349.4,3086
1349.4,3068
1349.4,3038
1349.4,2972
1349.5,2870
1349.5,2762
1349.5,2618
1349.5,2510
1349.5,2432
1349.6,2330
1349.6,2264
1349.6,2270
1349.6,2264
1349.6,2210
1349.7,2108
1349.7,2030
1349.7,1958
1349.7,1868
1349.7,1766
1349.8,1712
1349.8,1610
1349.8,1484
1349.8,1406
1349.8,1376
1349.9,1340
1349.9,1292
1349.9,1244
1349.9,1220
1349.9,1184
1350,1136
1350,1124
1350,1136
1350,1166
1350,1190
1350.1,1220
1350.1,1268
1350.1,1364
1350.1,1574
1350.1,1826
1350.2,2126
1350.2,2414
1350.2,2690
1350.2,2918
1350.2,3026
1350.3,3026
1350.3,3032
1350.3,2990
1350.3,2882
1350.3,2744
1350.4,2558
1350.4,2414
1350.4,2336
1350.4,2306
1350.4,2294
1350.5,2222
1350.5,2132
1350.5,2126
1350.5,2126
1350.5,2066
1350.6,1988
1350.6,1898
1350.6,1808
1350.6,1736
1350.6,1700
1350.7,1598
1350.7,1520
1350.7,1484
1350.7,1484
1350.7,1460
1350.8,1406
1350.8,1358
1350.8,1310
1350.8,1226
1350.8,1202
1350.9,1214
1350.9,1184
1350.9,1148
1350.9,1118
1350.9,1100
1351,1160
1351,1268
1351,1394
1351,1514
1351,1700
1351.1,1982
1351.1,2318
1351.1,2582
1351.1,2750
1351.1,2894
1351.2,2990
1351.2,3026
1351.2,2984
1351.2,2924
1351.2,2804
1351.3,2624
1351.3,2492
1351.3,2384
1351.3,2312
1351.3,2252
1351.4,2228
1351.4,2252
1351.4,2270
1351.4,2282
1351.4,2210
1351.5,2108
1351.5,2006
1351.5,1946
1351.5,1934
1351.5,1874
1351.6,1748
1351.6,1640
1351.6,1574
1351.6,1502
1351.6,1436
1351.7,1400
1351.7,1394
1351.7,1364
1351.7,1340
1351.7,1328
1351.8,1268
1351.8,1208
1351.8,1196
1351.8,1262
1351.8,1340
1351.9,1418
1351.9,1556
1351.9,1760
1351.9,2006
1351.9,2246
1352,2510
1352,2708
1352,2852
1352,2888
1352,2876
1352.1,2822
1352.1,2696
1352.1,2588
1352.1,2534
1352.1,2492
1352.2,2438
1352.2,2384
1352.2,2306
1352.2,2240
1352.2,2156
1352.3,2102
1352.3,2078
1352.3,2060
1352.3,2018
1352.3,1970
1352.4,1922
1352.4,1904
1352.4,1880
1352.4,1874
1352.4,1850
1352.5,1742
1352.5,1676
1352.5,1652
1352.5,1586
1352.5,1538
1352.6,1526
1352.6,1508
1352.6,1472
1352.6,1448
1352.6,1460
1352.7,1568
1352.7,1766
1352.7,2012
1352.7,2264
1352.7,2540
1352.8,2714
1352.8,2828
1352.8,2966
1352.8,3026
1352.8,3020
1352.9,3020
1352.9,2960
1352.9,2846
1352.9,2738
1352.9,2642
1353,2558
1353,2456
1353,2366
1353,2312
1353,2270
1353.1,2210
1353.1,2186
1353.1,2138
1353.1,2150
1353.1,2156
1353.2,2108
1353.2,2018
1353.2,1916
1353.2,1850
1353.2,1820
1353.3,1748
1353.3,1676
1353.3,1622
1353.3,1604
1353.3,1586
1353.4,1532
1353.4,1496
1353.4,1508
1353.4,1544
1353.4,1574
1353.5,1592
1353.5,1676
1353.5,1874
1353.5,2078
1353.5,2336
1353.6,2582
1353.6,2840
1353.6,2984
1353.6,3062
1353.6,3086
1353.7,3068
1353.7,3038
1353.7,2948
1353.7,2828
1353.7,2714
1353.8,2582
1353.8,2474
1353.8,2384
1353.8,2330
1353.8,2288
1353.9,2240
1353.9,2210
1353.9,2192
1353.9,2162
1353.9,2168
1354,2198
1354,2168
1354,2072
1354,1976
1354,1892
1354.1,1796
1354.1,1724
1354.1,1616
1354.1,1586
1354.1,1550
1354.2,1484
1354.2,1442
1354.2,1376
1354.2,1310
1354.2,1304
1354.3,1292
1354.3,1262
1354.3,1256
1354.3,1322
1354.3,1484
1354.4,1706
1354.4,1982
1354.4,2288
1354.4,2546
1354.4,2708
1354.5,2864
1354.5,2954
1354.5,2948
1354.5,2906
1354.5,2852
1354.6,2774
1354.6,2690
1354.6,2606
1354.6,2468
1354.6,2312
1354.7,2240
1354.7,2240
1354.7,2234
1354.7,2186
1354.7,2156
1354.8,2138
1354.8,2066
1354.8,1970
1354.8,1910
1354.8,1844
1354.9,1766
1354.9,1736
1354.9,1742
1354.9,1718
1354.9,1652
1355,1556
1355,1436
1355,1358
1355,1328
1355,1328
1355.1,1328
1355.1,1340
1355.1,1316
1355.1,1334
1355.1,1364
1355.2,1382
1355.2,1352
1355.2,1334
1355.2,1328
1355.2,1358
1355.3,1436
1355.3,1634
1355.3,1790
1355.3,2012
1355.3,2282
1355.4,2522
1355.4,2714
1355.4,2810
1355.4,2810
1355.4,2774
1355.5,2738
1355.5,2660
1355.5,2534
1355.5,2444
1355.5,2306
1355.6,2216
1355.6,2228
1355.6,2246
1355.6,2198
1355.6,2162
1355.7,2156
1355.7,2222
1355.7,2228
1355.7,2180
1355.7,2114
1355.8,2042
1355.8,2030
1355.8,1976
1355.8,1868
1355.8,1790
1355.9,1748
1355.9,1706
1355.9,1634
1355.9,1568
1355.9,1514
1356,1484
1356,1448
1356,1448
1356,1460
1356,1436
1356.1,1394
1356.1,1358
1356.1,1358
1356.1,1352
1356.1,1358
1356.2,1382
1356.2,1472
1356.2,1622
1356.2,1844
1356.2,2108
1356.3,2360
1356.3,2534
1356.3,2726
1356.3,2870
1356.3,2918
1356.4,2864
1356.4,2780
1356.4,2714
1356.4,2666
1356.4,2576
1356.5,2558
1356.5,2540
1356.5,2486
1356.5,2432
1356.5,2396
1356.6,2312
1356.6,2240
1356.6,2216
1356.6,2210
1356.6,2204
1356.7,2186
1356.7,2126
1356.7,2048
1356.7,1952
1356.7,1814
1356.8,1700
1356.8,1688
1356.8,1706
1356.8,1700
1356.8,1652
1356.9,1574
1356.9,1532
1356.9,1514
1356.9,1460
1356.9,1400
1357,1370
1357,1376
1357,1418
1357,1466
1357,1448
1357.1,1406
1357.1,1382
1357.1,1382
1357.1,1382
1357.1,1472
1357.2,1724
1357.2,2030
1357.2,2312
1357.2,2558
1357.2,2702
1357.3,2780
1357.3,2822
1357.3,2822
1357.3,2822
1357.3,2780
1357.4,2696
1357.4,2582
1357.4,2444
1357.4,2384
1357.4,2384
1357.5,2408
1357.5,2420
1357.5,2402
1357.5,2378
1357.5,2402
1357.6,2432
1357.6,2426
1357.6,2360
1357.6,2264
1357.6,2174
1357.7,2054
1357.7,1976
1357.7,1952
1357.7,1856
1357.7,1730
1357.8,1670
1357.8,1658
1357.8,1616
1357.8,1574
1357.8,1568
1357.9,1526
1357.9,1484
1357.9,1460
1357.9,1442
1357.9,1454
1358,1490
1358,1526
1358,1550
1358,1658
1358,1826
1358.1,2054
1358.1,2288
1358.1,2558
1358.1,2750
1358.1,2900
1358.2,2990
1358.2,3002
1358.2,3020
1358.2,3020
1358.2,3014
1358.3,2990
1358.3,2912
1358.3,2798
1358.3,2690
1358.3,2630
1358.4,2540
1358.4,2486
1358.4,2468
1358.4,2456
1358.4,2414
1358.5,2384
1358.5,2348
1358.5,2294
1358.5,2264
1358.5,2246
1358.6,2180
1358.6,2060
1358.6,1922
1358.6,1826
1358.6,1814
1358.7,1814
1358.7,1766
1358.7,1658
1358.7,1556
1358.7,1550
1358.8,1598
1358.8,1604
1358.8,1610
1358.8,1616
1358.8,1604
1358.9,1598
1358.9,1586
1358.9,1622
1358.9,1718
1358.9,1838
1359,1970
1359,2210
1359,2468
1359,2732
1359,2948
1359.1,3044
1359.1,3074
1359.1,3080
1359.1,3056
1359.1,3002
1359.2,2936
1359.2,2798
1359.2,2672
1359.2,2570
1359.2,2504
1359.3,2498
1359.3,2504
1359.3,2486
1359.3,2432
1359.3,2354
1359.4,2312
1359.4,2288
1359.4,2222
1359.4,2156
1359.4,2060
1359.5,1976
1359.5,1934
1359.5,1868
1359.5,1874
1359.5,1850
1359.6,1772
1359.6,1646
1359.6,1538
1359.6,1490
1359.6,1448
1359.7,1442
1359.7,1472
1359.7,1436
1359.7,1358
1359.7,1316
1359.8,1340
1359.8,1388
1359.8,1424
1359.8,1430
1359.8,1412
1359.9,1454
1359.9,1628
1359.9,1886
1359.9,2162
1359.9,2426
1360,2612
1360,2738
1360,2846
1360,3008
1360,3044
1360.1,2984
1360.1,2876
1360.1,2762
1360.1,2636
1360.1,2522
1360.2,2456
1360.2,2468
1360.2,2420
1360.2,2294
1360.2,2252
1360.3,2234
1360.3,2180
1360.3,2150
1360.3,2138
1360.3,2078
1360.4,2000
1360.4,1964
1360.4,1892
1360.4,1790
1360.4,1706
1360.5,1664
1360.5,1652
1360.5,1598
1360.5,1580
1360.5,1550
1360.6,1484
1360.6,1412
1360.6,1382
1360.6,1412
1360.6,1448
1360.7,1466
1360.7,1454
1360.7,1418
1360.7,1424
1360.7,1406
1360.8,1364
1360.8,1364
1360.8,1406
1360.8,1520
1360.8,1766
1360.9,2030
1360.9,2246
1360.9,2462
1360.9,2642
1360.9,2720
1361,2780
1361,2828
1361,2810
1361,2774
1361,2744
1361.1,2654
1361.1,2504
1361.1,2366
1361.1,2252
1361.1,2174
1361.2,2192
1361.2,2270
1361.2,2300
1361.2,2306
1361.2,2300
1361.3,2258
1361.3,2198
1361.3,2126
1361.3,2078
1361.3,2060
1361.4,2042
1361.4,1976
1361.4,1898
1361.4,1820
1361.4,1742
1361.5,1688
1361.5,1622
1361.5,1568
1361.5,1550
1361.5,1544
1361.6,1556
1361.6,1562
1361.6,1496
1361.6,1418
1361.6,1412
1361.7,1430
1361.7,1466
1361.7,1550
1361.7,1700
1361.7,1946
1361.8,2252
1361.8,2486
1361.8,2708
1361.8,2924
1361.8,3068
1361.9,3128
1361.9,3128
1361.9,3050
1361.9,2936
1361.9,2804
1362,2612
1362,2552
1362,2510
1362,2462
1362,2396
1362.1,2348
1362.1,2342
1362.1,2360
1362.1,2360
1362.1,2324
1362.2,2288
1362.2,2234
1362.2,2210
1362.2,2156
1362.2,2078
1362.3,1982
1362.3,1868
1362.3,1802
1362.3,1796
1362.3,1772
1362.4,1742
1362.4,1676
1362.4,1628
1362.4,1586
1362.4,1514
1362.5,1478
1362.5,1502
1362.5,1496
1362.5,1466
1362.5,1484
1362.6,1598
1362.6,1826
1362.6,2054
1362.6,2312
1362.6,2606
1362.7,2828
1362.7,2990
1362.7,3080
1362.7,3116
1362.7,3110
1362.8,3086
1362.8,3008
1362.8,2912
1362.8,2786
1362.8,2672
1362.9,2552
1362.9,2456
1362.9,2396
1362.9,2360
1362.9,2384
1363,2432
1363,2426
1363,2420
1363,2384
1363,2288
1363.1,2210
1363.1,2126
1363.1,2000
1363.1,1850
1363.1,1778
1363.2,1724
1363.2,1676
1363.2,1604
1363.2,1562
1363.2,1532
1363.3,1502
1363.3,1478
1363.3,1472
1363.3,1478
1363.3,1478
1363.4,1448
1363.4,1478
1363.4,1502
1363.4,1532
1363.4,1586
1363.5,1760
1363.5,2054
1363.5,2414
1363.5,2714
1363.5,2924
1363.6,3008
1363.6,3062
1363.6,3080
1363.6,3056
1363.6,3050
1363.7,2984
1363.7,2918
1363.7,2804
1363.7,2684
1363.7,2594
1363.8,2516
1363.8,2462
1363.8,2426
1363.8,2354
1363.8,2270
1363.9,2216
1363.9,2186
1363.9,2120
1363.9,2036
1363.9,1946
1364,1874
1364,1826
1364,1742
1364,1640
1364,1580
1364.1,1544
1364.1,1502
1364.1,1454
1364.1,1436
1364.1,1430
1364.2,1370
1364.2,1358
1364.2,1382
1364.2,1424
1364.2,1412
1364.3,1358
1364.3,1226
1364.3,1232
1364.3,1376
1364.3,1574
1364.4,1838
1364.4,2174
1364.4,2426
1364.4,2630
1364.4,2774
1364.5,2888
1364.5,2954
1364.5,2960
1364.5,2912
1364.5,2810
1364.6,2672
1364.6,2576
1364.6,2498
1364.6,2444
1364.6,2372
1364.7,2312
1364.7,2258
1364.7,2216
1364.7,2222
1364.7,2210
1364.8,2162
1364.8,2108
1364.8,2024
1364.8,1940
1364.8,1862
1364.9,1796
1364.9,1778
1364.9,1754
1364.9,1670
1364.9,1532
1365,1418
1365,1388
1365,1400
1365,1388
1365,1352
1365.1,1310
1365.1,1298
1365.1,1286
1365.1,1268
1365.1,1274
1365.2,1274
1365.2,1244
1365.2,1256
1365.2,1304
1365.2,1388
1365.3,1514
1365.3,1742
1365.3,2096
1365.3,2438
1365.3,2660
1365.4,2810
1365.4,2846
1365.4,2822
1365.4,2798
1365.4,2756
1365.5,2672
1365.5,2630
1365.5,2552
1365.5,2438
1365.5,2312
1365.6,2210
1365.6,2150
1365.6,2156
1365.6,2168
1365.6,2156
1365.7,2126
1365.7,2108
1365.7,2126
1365.7,2132
1365.7,2132
1365.8,2072
1365.8,1946
1365.8,1796
1365.8,1682
1365.8,1622
1365.9,1556
1365.9,1544
1365.9,1574
1365.9,1592
1365.9,1562
1366,1538
1366,1538
1366,1496
1366,1460
1366,1460
1366.1,1520
1366.1,1604
1366.1,1700
1366.1,1826
1366.1,1982
1366.2,2198
1366.2,2396
1366.2,2660
1366.2,2876
1366.2,3074
1366.3,3206
1366.3,3230
1366.3,3152
1366.3,3080
1366.3,2990
1366.4,2888
1366.4,2732
1366.4,2636
1366.4,2552
1366.4,2504
1366.5,2426
1366.5,2402
1366.5,2420
1366.5,2420
1366.5,2354
1366.6,2294
1366.6,2294
1366.6,2252
1366.6,2192
1366.6,2102
1366.7,2000
1366.7,1898
1366.7,1796
1366.7,1712
1366.7,1670
1366.8,1682
1366.8,1664
1366.8,1634
1366.8,1580
1366.8,1496
1366.9,1436
1366.9,1412
1366.9,1412
1366.9,1418
1366.9,1460
1367,1418
1367,1406
1367,1508
1367,1628
1367,1772
1367.1,1976
1367.1,2258
1367.1,2558
1367.1,2816
1367.1,3050
1367.2,3182
1367.2,3206
1367.2,3146
1367.2,3134
1367.2,3116
1367.3,2996
1367.3,2858
1367.3,2732
1367.3,2600
1367.3,2510
1367.4,2414
1367.4,2372
1367.4,2384
1367.4,2354
1367.4,2348
1367.5,2348
1367.5,2318
1367.5,2270
1367.5,2198
1367.5,2144
1367.6,2108
1367.6,2036
1367.6,1910
1367.6,1808
1367.6,1730
1367.7,1640
1367.7,1616
1367.7,1586
1367.7,1550
1367.7,1502
1367.8,1466
1367.8,1430
1367.8,1436
1367.8,1412
1367.8,1364
1367.9,1346
1367.9,1364
1367.9,1412
1367.9,1496
1367.9,1646
1368,1838
1368,2126
1368,2444
1368,2666
1368,2828
1368.1,2930
1368.1,2990
1368.1,3014
1368.1,2972
1368.1,2912
1368.2,2864
1368.2,2834
1368.2,2738
1368.2,2600
1368.2,2546
1368.3,2486
1368.3,2426
1368.3,2330
1368.3,2252
1368.3,2324
1368.4,2378
1368.4,2342
1368.4,2246
1368.4,2168
1368.4,2084
1368.5,2000
1368.5,1928
1368.5,1832
1368.5,1748
1368.5,1646
1368.6,1544
1368.6,1472
1368.6,1436
1368.6,1418
1368.6,1412
1368.7,1388
1368.7,1376
1368.7,1358
1368.7,1334
1368.7,1328
1368.8,1334
1368.8,1316
1368.8,1268
1368.8,1256
1368.8,1352
1368.9,1508
1368.9,1658
1368.9,1874
1368.9,2156
1368.9,2432
1369,2660
1369,2822
1369,2906
1369,2942
1369,2912
1369.1,2816
1369.1,2696
1369.1,2552
1369.1,2438
1369.1,2378
1369.2,2318
1369.2,2276
1369.2,2204
1369.2,2138
1369.2,2096
1369.3,2084
1369.3,2066
1369.3,2012
1369.3,1970
1369.3,1922
1369.4,1850
1369.4,1850
1369.4,1880
1369.4,1838
1369.4,1820
1369.5,1772
1369.5,1682
1369.5,1580
1369.5,1538
1369.5,1496
1369.6,1424
1369.6,1388
1369.6,1388
1369.6,1430
1369.6,1466
1369.7,1442
1369.7,1394
1369.7,1316
1369.7,1346
1369.7,1472
1369.8,1640
1369.8,1856
1369.8,2144
1369.8,2492
1369.8,2768
1369.9,2924
1369.9,3020
1369.9,3092
1369.9,3056
1369.9,2990
1370,2906
1370,2792
1370,2696
1370,2654
1370,2564
1370.1,2468
1370.1,2408
1370.1,2342
1370.1,2324
1370.1,2324
1370.2,2270
1370.2,2180
1370.2,2126
1370.2,2072
1370.2,2024
1370.3,1982
1370.3,1952
1370.3,1928
1370.3,1904
1370.3,1838
1370.4,1748
1370.4,1670
1370.4,1610
1370.4,1580
1370.4,1562
1370.5,1526
1370.5,1496
1370.5,1466
1370.5,1466
1370.5,1478
1370.6,1484
1370.6,1424
1370.6,1412
1370.6,1520
1370.6,1718
1370.7,1958
1370.7,2246
1370.7,2492
1370.7,2738
1370.7,2984
1370.8,3134
1370.8,3194
1370.8,3200
1370.8,3146
1370.8,3062
1370.9,2942
1370.9,2780
1370.9,2636
1370.9,2576
1370.9,2534
1371,2504
1371,2450
1371,2426
1371,2378
1371,2300
1371.1,2222
1371.1,2198
1371.1,2144
1371.1,2096
1371.1,2048
1371.2,2012
1371.2,1982
1371.2,1922
1371.2,1874
1371.2,1820
1371.3,1778
1371.3,1736
1371.3,1652
1371.3,1604
1371.3,1496
1371.4,1394
1371.4,1364
1371.4,1358
1371.4,1358
1371.4,1364
1371.5,1334
1371.5,1286
1371.5,1286
1371.5,1370
1371.5,1478
1371.6,1640
1371.6,1856
1371.6,2132
1371.6,2402
1371.6,2624
1371.7,2864
1371.7,3044
1371.7,3128
1371.7,3110
1371.7,3080
1371.8,3020
1371.8,2900
1371.8,2768
1371.8,2642
1371.8,2558
1371.9,2504
1371.9,2462
1371.9,2414
1371.9,2408
1371.9,2378
1372,2270
1372,2186
1372,2132
1372,2120
1372,2090
1372.1,2012
1372.1,1952
1372.1,1910
1372.1,1844
1372.1,1772
1372.2,1694
1372.2,1610
1372.2,1538
1372.2,1502
1372.2,1472
1372.3,1424
1372.3,1352
1372.3,1328
1372.3,1334
1372.3,1346
1372.4,1310
1372.4,1256
1372.4,1232
1372.4,1238
1372.4,1286
1372.5,1358
1372.5,1484
1372.5,1688
1372.5,1922
1372.5,2210
1372.6,2540
1372.6,2840
1372.6,3038
1372.6,3158
1372.6,3194
1372.7,3164
1372.7,3140
1372.7,3098
1372.7,2948
1372.7,2822
1372.8,2696
1372.8,2534
1372.8,2402
1372.8,2288
1372.8,2246
1372.9,2252
1372.9,2246
1372.9,2276
1372.9,2264
1372.9,2264
1373,2234
1373,2132
1373,2012
1373,1928
1373,1820
1373.1,1694
1373.1,1658
1373.1,1622
1373.1,1568
1373.1,1556
1373.2,1502
1373.2,1406
1373.2,1346
1373.2,1340
1373.2,1328
1373.3,1256
1373.3,1196
1373.3,1190
1373.3,1214
1373.3,1232
1373.4,1262
1373.4,1322
1373.4,1424
1373.4,1598
1373.4,1862
1373.5,2216
1373.5,2558
1373.5,2786
1373.5,2852
1373.5,2864
1373.6,2900
1373.6,2924
1373.6,2894
1373.6,2780
1373.6,2654
1373.7,2570
1373.7,2486
1373.7,2396
1373.7,2306
1373.7,2264
1373.8,2216
1373.8,2168
1373.8,2174
1373.8,2192
1373.8,2198
1373.9,2180
1373.9,2156
1373.9,2120
1373.9,2048
1373.9,1976
1374,1868
1374,1760
1374,1634
1374,1562
1374,1568
1374.1,1520
1374.1,1418
1374.1,1358
1374.1,1328
1374.1,1298
1374.2,1292
1374.2,1316
1374.2,1406
1374.2,1448
1374.2,1472
1374.3,1550
1374.3,1754
1374.3,2012
1374.3,2234
1374.3,2504
1374.4,2768
1374.4,2972
1374.4,3188
1374.4,3314
1374.4,3314
1374.5,3212
1374.5,3056
1374.5,2900
1374.5,2792
1374.5,2696
1374.6,2642
1374.6,2564
1374.6,2486
1374.6,2468
1374.6,2450
1374.7,2384
1374.7,2360
1374.7,2354
1374.7,2294
1374.7,2180
1374.8,2072
1374.8,1982
1374.8,1898
1374.8,1790
1374.8,1772
1374.9,1760
1374.9,1724
1374.9,1664
1374.9,1604
1374.9,1508
1375,1466
1375,1418
1375,1388
1375,1346
1375,1364
1375.1,1370
1375.1,1358
1375.1,1364
1375.1,1442
1375.1,1610
1375.2,1850
1375.2,2060
1375.2,2342
1375.2,2678
1375.2,2966
1375.3,3146
1375.3,3212
1375.3,3194
1375.3,3158
1375.3,3104
1375.4,3002
1375.4,2894
1375.4,2786
1375.4,2660
1375.4,2576
1375.5,2456
1375.5,2342
1375.5,2312
1375.5,2378
1375.5,2372
1375.6,2294
1375.6,2192
1375.6,2144
1375.6,2102
1375.6,2006
1375.7,1922
1375.7,1838
1375.7,1742
1375.7,1646
1375.7,1556
1375.8,1490
1375.8,1454
1375.8,1394
1375.8,1352
1375.8,1328
1375.9,1334
1375.9,1322
1375.9,1304
1375.9,1286
1375.9,1268
1376,1280
1376,1262
1376,1256
1376,1286
1376,1334
1376.1,1478
1376.1,1676
1376.1,1952
1376.1,2324
1376.1,2636
1376.2,2828
1376.2,3002
1376.2,3116
1376.2,3188
1376.2,3194
1376.3,3146
1376.3,3074
1376.3,2906
1376.3,2738
1376.3,2570
1376.4,2450
1376.4,2354
1376.4,2318
1376.4,2330
1376.4,2318
1376.5,2270
1376.5,2228
1376.5,2216
1376.5,2222
1376.5,2138
1376.6,2006
1376.6,1898
1376.6,1814
1376.6,1742
1376.6,1718
1376.7,1688
1376.7,1616
1376.7,1502
1376.7,1436
1376.7,1346
1376.8,1280
1376.8,1238
1376.8,1232
1376.8,1208
1376.8,1226
1376.9,1262
1376.9,1286
1376.9,1268
1376.9,1298
1376.9,1328
1377,1382
1377,1520
1377,1730
1377,2048
1377,2360
1377.1,2696
1377.1,2942
1377.1,3086
1377.1,3170
1377.1,3176
1377.2,3152
1377.2,3110
1377.2,2990
1377.2,2798
1377.2,2636
1377.3,2516
1377.3,2366
1377.3,2222
1377.3,2144
1377.3,2186
1377.4,2294
1377.4,2336
1377.4,2306
1377.4,2264
1377.4,2210
1377.5,2150
1377.5,2042
1377.5,1916
1377.5,1826
1377.5,1790
1377.6,1778
1377.6,1736
1377.6,1652
1377.6,1568
1377.6,1472
1377.7,1370
1377.7,1328
1377.7,1334
1377.7,1274
1377.7,1244
1377.8,1244
1377.8,1238
1377.8,1244
1377.8,1262
1377.8,1364
1377.9,1550
1377.9,1796
1377.9,2048
1377.9,2366
1377.9,2660
1378,2894
1378,3098
1378,3212
1378,3236
1378,3194
1378.1,3074
1378.1,2966
1378.1,2840
1378.1,2702
1378.1,2588
1378.2,2540
1378.2,2420
1378.2,2354
1378.2,2330
1378.2,2294
1378.3,2276
1378.3,2216
1378.3,2144
1378.3,2108
1378.3,2054
1378.4,1916
1378.4,1742
1378.4,1622
1378.4,1562
1378.4,1532
1378.5,1526
1378.5,1496
1378.5,1442
1378.5,1364
1378.5,1280
1378.6,1262
1378.6,1250
1378.6,1202
1378.6,1136
1378.6,1118
1378.7,1106
1378.7,1130
1378.7,1202
1378.7,1352
1378.7,1568
1378.8,1898
1378.8,2282
1378.8,2612
1378.8,2792
1378.8,2990
1378.9,3116
1378.9,3116
1378.9,3056
1378.9,2984
1378.9,2894
1379,2804
1379,2690
1379,2564
1379,2444
1379,2360
1379.1,2282
1379.1,2246
1379.1,2204
1379.1,2180
1379.1,2180
1379.2,2132
1379.2,2060
1379.2,1994
1379.2,1958
1379.2,1922
1379.3,1856
1379.3,1760
1379.3,1682
1379.3,1610
1379.3,1538
1379.4,1508
1379.4,1436
1379.4,1376
1379.4,1376
1379.4,1370
1379.5,1334
1379.5,1316
1379.5,1328
1379.5,1388
1379.5,1532
1379.6,1700
1379.6,1952
1379.6,2240
1379.6,2492
1379.6,2726
1379.7,2906
1379.7,3008
1379.7,3020
1379.7,2966
1379.7,2912
1379.8,2864
1379.8,2732
1379.8,2606
1379.8,2510
1379.8,2438
1379.9,2348
1379.9,2276
1379.9,2252
1379.9,2186
1379.9,2102
1380,2084
1380,2042
1380,1958
1380,1874
1380,1790
1380.1,1676
1380.1,1604
1380.1,1550
1380.1,1502
1380.1,1430
1380.2,1340
1380.2,1244
1380.2,1160
1380.2,1118
1380.2,1106
1380.3,1082
1380.3,1040
1380.3,1016
1380.3,1022
1380.3,1070
1380.4,1148
1380.4,1286
1380.4,1550
1380.4,1832
1380.4,2084
1380.5,2348
1380.5,2522
1380.5,2612
1380.5,2678
1380.5,2702
1380.6,2750
1380.6,2780
1380.6,2738
1380.6,2648
1380.6,2546
1380.7,2450
1380.7,2348
1380.7,2264
1380.7,2222
1380.7,2216
1380.8,2186
1380.8,2186
1380.8,2138
1380.8,2024
1380.8,1904
1380.9,1766
1380.9,1706
1380.9,1706
1380.9,1664
1380.9,1622
1381,1586
1381,1550
1381,1502
1381,1508
1381,1484
1381.1,1424
1381.1,1340
1381.1,1250
1381.1,1178
1381.1,1154
1381.2,1190
1381.2,1232
1381.2,1250
1381.2,1250
1381.2,1298
1381.3,1382
1381.3,1550
1381.3,1766
1381.3,1988
1381.3,2198
1381.4,2456
1381.4,2624
1381.4,2684
1381.4,2720
1381.4,2756
1381.5,2732
1381.5,2690
1381.5,2666
1381.5,2654
1381.5,2546
1381.6,2444
1381.6,2372
1381.6,2312
1381.6,2270
1381.6,2306
1381.7,2330
1381.7,2336
1381.7,2306
1381.7,2222
1381.7,2180
1381.8,2156
1381.8,2114
1381.8,2030
1381.8,1916
1381.8,1802
1381.9,1778
1381.9,1790
1381.9,1760
1381.9,1718
1381.9,1658
1382,1598
1382,1544
1382,1502
1382,1460
1382,1460
1382.1,1526
1382.1,1544
1382.1,1460
1382.1,1412
1382.1,1424
1382.2,1472
1382.2,1562
1382.2,1712
1382.2,1892
1382.2,2036
1382.3,2228
1382.3,2408
1382.3,2558
1382.3,2672
1382.3,2780
1382.4,2846
1382.4,2816
1382.4,2720
1382.4,2642
1382.4,2570
1382.5,2540
1382.5,2540
1382.5,2588
1382.5,2564
1382.5,2462
1382.6,2378
1382.6,2360
1382.6,2300
1382.6,2312
1382.6,2318
1382.7,2264
1382.7,2150
1382.7,2048
1382.7,1952
1382.7,1856
1382.8,1796
1382.8,1772
1382.8,1754
1382.8,1718
1382.8,1658
1382.9,1634
1382.9,1616
1382.9,1538
1382.9,1484
1382.9,1454
1383,1442
1383,1376
1383,1310
1383,1370
1383,1412
1383.1,1424
1383.1,1436
1383.1,1562
1383.1,1784
1383.1,2066
1383.2,2318
1383.2,2468
1383.2,2600
1383.2,2696
1383.2,2738
1383.3,2714
1383.3,2666
1383.3,2612
1383.3,2522
1383.3,2426
1383.4,2330
1383.4,2252
1383.4,2258
1383.4,2270
1383.4,2216
1383.5,2150
1383.5,2150
1383.5,2186
1383.5,2162
1383.5,2114
1383.6,2096
1383.6,2078
1383.6,1982
1383.6,1910
1383.6,1856
1383.7,1808
1383.7,1754
1383.7,1778
1383.7,1808
1383.7,1814
1383.8,1808
1383.8,1784
1383.8,1718
1383.8,1652
1383.8,1604
1383.9,1562
1383.9,1622
1383.9,1718
1383.9,1844
1383.9,2018
1384,2240
1384,2438
1384,2612
1384,2786
1384,2906
1384.1,2960
1384.1,2960
1384.1,2948
1384.1,2912
1384.1,2816
1384.2,2726
1384.2,2606
1384.2,2510
1384.2,2456
1384.2,2432
1384.3,2426
1384.3,2462
1384.3,2444
1384.3,2384
1384.3,2360
1384.4,2360
1384.4,2300
1384.4,2228
1384.4,2168
1384.4,2144
1384.5,2114
1384.5,2072
1384.5,2030
1384.5,1940
1384.5,1844
1384.6,1748
1384.6,1706
1384.6,1670
1384.6,1640
1384.6,1634
1384.7,1616
1384.7,1550
1384.7,1544
1384.7,1604
1384.7,1718
1384.8,1886
1384.8,2132
1384.8,2378
1384.8,2588
1384.8,2744
1384.9,2876
1384.9,2948
1384.9,2948
1384.9,2954
1384.9,2882
1385,2792
1385,2690
1385,2630
1385,2582
1385,2558
1385.1,2510
1385.1,2444
1385.1,2366
1385.1,2330
1385.1,2330
1385.2,2294
1385.2,2258
1385.2,2258
1385.2,2246
1385.2,2198
1385.3,2132
1385.3,2078
1385.3,2012
1385.3,1880
1385.3,1790
1385.4,1736
1385.4,1676
1385.4,1598
1385.4,1532
1385.4,1454
1385.5,1400
1385.5,1412
1385.5,1418
1385.5,1406
1385.5,1412
1385.6,1406
1385.6,1424
1385.6,1472
1385.6,1556
1385.6,1706
1385.7,1922
1385.7,2132
1385.7,2342
1385.7,2522
1385.7,2612
1385.8,2618
1385.8,2564
1385.8,2510
1385.8,2486
1385.8,2432
1385.9,2396
1385.9,2378
1385.9,2300
1385.9,2240
1385.9,2210
1386,2180
1386,2138
1386,2072
1386,2066
1386,2060
1386.1,2018
1386.1,1934
1386.1,1868
1386.1,1814
1386.1,1808
1386.2,1784
1386.2,1700
1386.2,1610
1386.2,1532
1386.2,1448
1386.3,1418
1386.3,1430
1386.3,1466
1386.3,1478
1386.3,1466
1386.4,1418
1386.4,1364
1386.4,1328
1386.4,1280
1386.4,1256
1386.5,1274
1386.5,1340
1386.5,1448
1386.5,1592
1386.5,1730
1386.6,1856
1386.6,2060
1386.6,2264
1386.6,2402
1386.6,2504
1386.7,2564
1386.7,2546
1386.7,2480
1386.7,2438
1386.7,2414
1386.8,2300
1386.8,2120
1386.8,2024
1386.8,2000
1386.8,2024
1386.9,2078
1386.9,2126
1386.9,2138
1386.9,2126
1386.9,2102
1387,2084
1387,2030
1387,1988
1387,1916
1387,1790
1387.1,1688
1387.1,1670
1387.1,1718
1387.1,1724
1387.1,1700
1387.2,1658
1387.2,1586
1387.2,1502
1387.2,1436
1387.2,1436
1387.3,1436
1387.3,1430
1387.3,1460
1387.3,1430
1387.3,1406
1387.4,1472
1387.4,1616
1387.4,1778
1387.4,1946
1387.4,2108
1387.5,2276
1387.5,2408
1387.5,2474
1387.5,2516
1387.5,2546
1387.6,2534
1387.6,2516
1387.6,2486
1387.6,2390
1387.6,2312
1387.7,2240
1387.7,2180
1387.7,2162
1387.7,2168
1387.7,2180
1387.8,2186
1387.8,2162
1387.8,2120
1387.8,2078
1387.8,2054
1387.9,2030
1387.9,2030
1387.9,1982
1387.9,1934
1387.9,1910
1388,1904
1388,1898
1388,1874
1388,1826
1388,1760
1388.1,1712
1388.1,1688
1388.1,1640
1388.1,1586
1388.1,1574
1388.2,1616
1388.2,1652
1388.2,1712
1388.2,1808
1388.2,1928
1388.3,2090
1388.3,2270
1388.3,2450
1388.3,2630
1388.3,2744
1388.4,2804
1388.4,2828
1388.4,2810
1388.4,2774
1388.4,2756
1388.5,2684
1388.5,2624
1388.5,2612
1388.5,2648
1388.5,2654
1388.6,2582
1388.6,2504
1388.6,2426
1388.6,2390
1388.6,2396
1388.7,2402
1388.7,2378
1388.7,2300
1388.7,2210
1388.7,2132
1388.8,2120
1388.8,2132
1388.8,2138
1388.8,2102
1388.8,2042
1388.9,1988
1388.9,1976
1388.9,1952
1388.9,1916
1388.9,1826
1389,1754
1389,1784
1389,1844
1389,1880
1389,1880
1389.1,1880
1389.1,1916
1389.1,2000
1389.1,2156
1389.1,2294
1389.2,2420
1389.2,2618
1389.2,2774
1389.2,2888
1389.2,2954
1389.3,2972
1389.3,2948
1389.3,2918
1389.3,2828
1389.3,2744
1389.4,2660
1389.4,2642
1389.4,2666
1389.4,2654
1389.4,2624
1389.5,2570
1389.5,2522
1389.5,2468
1389.5,2384
1389.5,2390
1389.6,2396
1389.6,2366
1389.6,2306
1389.6,2204
1389.6,2150
1389.7,2132
1389.7,2114
1389.7,2090
1389.7,2060
1389.7,2012
1389.8,1964
1389.8,1880
1389.8,1826
1389.8,1790
1389.8,1730
1389.9,1682
1389.9,1700
1389.9,1760
1389.9,1790
1389.9,1760
1390,1730
1390,1682
1390,1712
1390,1784
1390,1928
1390.1,2204
1390.1,2438
1390.1,2624
1390.1,2804
1390.1,2894
1390.2,2942
1390.2,2960
1390.2,2954
1390.2,2894
1390.2,2840
1390.3,2792
1390.3,2756
1390.3,2696
1390.3,2630
1390.3,2552
1390.4,2504
1390.4,2474
1390.4,2414
1390.4,2372
1390.4,2348
1390.5,2330
1390.5,2294
1390.5,2228
1390.5,2126
1390.5,2060
1390.6,2006
1390.6,1928
1390.6,1922
1390.6,1904
1390.6,1910
1390.7,1898
1390.7,1820
1390.7,1736
1390.7,1646
1390.7,1604
1390.8,1616
1390.8,1574
1390.8,1490
1390.8,1496
1390.8,1544
1390.9,1592
1390.9,1598
1390.9,1562
1390.9,1580
1390.9,1640
1391,1718
1391,1880
1391,2156
1391,2390
1391,2564
1391.1,2690
1391.1,2768
1391.1,2810
1391.1,2828
1391.1,2828
1391.2,2816
1391.2,2744
1391.2,2612
1391.2,2486
1391.2,2462
1391.3,2438
1391.3,2426
1391.3,2456
1391.3,2438
1391.3,2432
1391.4,2390
1391.4,2330
1391.4,2258
1391.4,2180
1391.4,2108
1391.5,2030
1391.5,1916
1391.5,1868
1391.5,1850
1391.5,1766
1391.6,1688
1391.6,1628
1391.6,1592
1391.6,1532
1391.6,1472
1391.7,1394
1391.7,1364
1391.7,1370
1391.7,1376
1391.7,1364
1391.8,1364
1391.8,1382
1391.8,1412
1391.8,1514
1391.8,1616
1391.9,1706
1391.9,1862
1391.9,2102
1391.9,2366
1391.9,2606
1392,2750
1392,2816
1392,2846
1392,2810
1392,2756
1392.1,2732
1392.1,2708
1392.1,2630
1392.1,2534
1392.1,2396
1392.2,2288
1392.2,2306
1392.2,2366
1392.2,2324
1392.2,2258
1392.3,2198
1392.3,2186
1392.3,2138
1392.3,2108
1392.3,2084
1392.4,2000
1392.4,1880
1392.4,1790
1392.4,1760
1392.4,1730
1392.5,1736
1392.5,1724
1392.5,1652
1392.5,1592
1392.5,1592
1392.6,1598
1392.6,1574
1392.6,1520
1392.6,1466
1392.6,1424
1392.7,1460
1392.7,1568
1392.7,1760
1392.7,2036
1392.7,2360
1392.8,2612
1392.8,2846
1392.8,3008
1392.8,3050
1392.8,3026
1392.9,3020
1392.9,3020
1392.9,2996
1392.9,2900
1392.9,2792
1393,2714
1393,2630
1393,2534
1393,2468
1393,2426
1393.1,2390
1393.1,2306
1393.1,2258
1393.1,2216
1393.1,2186
1393.2,2168
1393.2,2114
1393.2,2066
1393.2,1982
1393.2,1862
1393.3,1760
1393.3,1670
1393.3,1580
1393.3,1538
1393.3,1592
1393.4,1646
1393.4,1634
1393.4,1640
1393.4,1634
1393.4,1610
1393.5,1562
1393.5,1502
1393.5,1496
1393.5,1526
1393.5,1598
1393.6,1760
1393.6,1958
1393.6,2216
1393.6,2456
1393.6,2696
1393.7,2888
1393.7,3026
1393.7,3110
1393.7,3122
1393.7,3086
1393.8,3008
1393.8,2954
1393.8,2906
1393.8,2828
1393.8,2666
1393.9,2498
1393.9,2432
1393.9,2426
1393.9,2408
1393.9,2378
1394,2336
1394,2300
1394,2288
1394,2210
1394,2120
1394.1,2066
1394.1,2042
1394.1,1988
1394.1,1916
1394.1,1838
1394.2,1730
1394.2,1616
1394.2,1514
1394.2,1412
1394.2,1370
1394.3,1352
1394.3,1322
1394.3,1322
1394.3,1286
1394.3,1250
1394.4,1244
1394.4,1286
1394.4,1334
1394.4,1394
1394.4,1502
1394.5,1724
1394.5,2036
1394.5,2354
1394.5,2672
1394.5,2918
1394.6,3098
1394.6,3212
1394.6,3266
1394.6,3224
1394.6,3104
1394.7,2930
1394.7,2786
1394.7,2672
1394.7,2516
1394.7,2420
1394.8,2348
1394.8,2342
1394.8,2330
1394.8,2234
1394.8,2132
1394.9,2102
1394.9,2084
1394.9,2060
1394.9,2036
1394.9,2018
1395,2000
1395,1940
1395,1880
1395,1850
1395,1778
1395.1,1664
1395.1,1550
1395.1,1520
1395.1,1466
1395.1,1388
1395.2,1340
1395.2,1262
1395.2,1208
1395.2,1202
1395.2,1178
1395.3,1166
1395.3,1208
1395.3,1328
1395.3,1514
1395.3,1766
1395.4,2018
1395.4,2288
1395.4,2540
1395.4,2756
1395.4,2888
1395.5,2978
1395.5,2966
1395.5,2942
1395.5,2918
1395.5,2798
1395.6,2654
1395.6,2504
1395.6,2354
1395.6,2252
1395.6,2210
1395.7,2180
1395.7,2126
1395.7,2090
1395.7,2054
1395.7,2048
1395.8,2066
1395.8,2090
1395.8,2036
1395.8,1988
1395.8,1982
1395.9,1928
1395.9,1832
1395.9,1694
1395.9,1604
1395.9,1550
1396,1502
1396,1484
1396,1478
1396,1388
1396,1322
1396.1,1310
1396.1,1316
1396.1,1280
1396.1,1274
1396.1,1370
1396.2,1538
1396.2,1790
1396.2,2102
1396.2,2396
1396.2,2672
1396.3,2948
1396.3,3134
1396.3,3170
1396.3,3170
1396.3,3170
1396.4,3110
1396.4,2948
1396.4,2822
1396.4,2696
1396.4,2558
1396.5,2480
1396.5,2396
1396.5,2324
1396.5,2300
1396.5,2294
1396.6,2330
1396.6,2294
1396.6,2276
1396.6,2210
1396.6,2084
1396.7,2006
1396.7,1946
1396.7,1856
1396.7,1760
1396.7,1736
1396.8,1688
1396.8,1580
1396.8,1508
1396.8,1442
1396.8,1418
1396.9,1388
1396.9,1346
1396.9,1352
1396.9,1376
1396.9,1400
1397,1448
1397,1544
1397,1712
1397,1958
1397,2222
1397.1,2504
1397.1,2762
1397.1,3044
1397.1,3206
1397.1,3254
1397.2,3182
1397.2,3080
1397.2,2972
1397.2,2888
1397.2,2810
1397.3,2690
1397.3,2582
1397.3,2486
1397.3,2372
1397.3,2264
1397.4,2168
1397.4,2168
1397.4,2162
1397.4,2156
1397.4,2162
1397.5,2138
1397.5,2048
1397.5,1946
1397.5,1832
1397.5,1754
1397.6,1712
1397.6,1676
1397.6,1640
1397.6,1562
1397.6,1442
1397.7,1388
1397.7,1382
1397.7,1298
1397.7,1262
1397.7,1280
1397.8,1262
1397.8,1298
1397.8,1340
1397.8,1316
1397.8,1262
1397.9,1286
1397.9,1382
1397.9,1574
1397.9,1868
1397.9,2252
1398,2630
1398,2894
1398,3074
1398,3206
1398,3236
1398.1,3188
1398.1,3116
1398.1,3014
1398.1,2888
1398.1,2726
1398.2,2570
1398.2,2468
1398.2,2420
1398.2,2408
1398.2,2342
1398.3,2264
1398.3,2222
1398.3,2180
1398.3,2132
1398.3,2072
1398.4,1982
1398.4,1850
1398.4,1754
1398.4,1652
1398.4,1610
1398.5,1592
1398.5,1538
1398.5,1466
1398.5,1418
1398.5,1394
1398.6,1382
1398.6,1340
1398.6,1286
1398.6,1202
1398.6,1178
1398.7,1172
1398.7,1190
1398.7,1238
1398.7,1238
1398.7,1280
1398.8,1358
1398.8,1478
1398.8,1658
1398.8,1916
1398.8,2180
1398.9,2474
1398.9,2768
1398.9,2966
1398.9,3098
1398.9,3134
1399,3074
1399,2978
1399,2906
1399,2870
1399,2774
1399.1,2654
1399.1,2534
1399.1,2468
1399.1,2420
1399.1,2348
1399.2,2246
1399.2,2198
1399.2,2186
1399.2,2204
1399.2,2186
1399.3,2102
1399.3,2024
1399.3,1940
1399.3,1862
1399.3,1796
1399.4,1724
1399.4,1676
1399.4,1628
1399.4,1538
1399.4,1436
1399.5,1370
1399.5,1340
1399.5,1292
1399.5,1274
1399.5,1262
1399.6,1196
1399.6,1154
1399.6,1136
1399.6,1136
1399.6,1172
1399.7,1244
1399.7,1376
1399.7,1508
1399.7,1748
1399.7,2048
1399.8,2354
1399.8,2618
1399.8,2840
1399.8,2984
1399.8,3032
1399.9,3044
1399.9,3008
1399.9,2888
1399.9,2756
1399.9,2630
1400,2492
1400,2384
1400,2282
1400,2174
1400,2156
1400.1,2186
1400.1,2198
1400.1,2204
1400.1,2192
1400.1,2240
1400.2,2222
1400.2,2114
1400.2,1970
1400.2,1796
1400.2,1700
1400.3,1664
1400.3,1658
1400.3,1676
1400.3,1628
1400.3,1508
1400.4,1424
1400.4,1412
1400.4,1382
1400.4,1316
1400.4,1244
1400.5,1250
1400.5,1304
1400.5,1376
1400.5,1460
1400.5,1562
1400.6,1754
1400.6,2018
1400.6,2342
1400.6,2624
1400.6,2840
1400.7,2960
1400.7,3068
1400.7,3134
1400.7,3080
1400.7,2978
1400.8,2882
1400.8,2792
1400.8,2666
1400.8,2540
1400.8,2450
1400.9,2414
1400.9,2384
1400.9,2348
1400.9,2300
1400.9,2282
1401,2294
1401,2234
1401,2156
1401,2132
1401,2126
1401.1,2078
1401.1,2018
1401.1,1934
1401.1,1832
1401.1,1736
1401.2,1676
1401.2,1658
1401.2,1652
1401.2,1622
1401.2,1538
1401.3,1454
1401.3,1430
1401.3,1430
1401.3,1442
1401.3,1508
1401.4,1580
1401.4,1760
1401.4,2036
1401.4,2312
1401.4,2588
1401.5,2858
1401.5,3020
1401.5,3116
1401.5,3158
1401.5,3170
1401.6,3140
1401.6,3026
1401.6,2870
1401.6,2756
1401.6,2660
1401.7,2540
1401.7,2420
1401.7,2354
1401.7,2318
1401.7,2288
1401.8,2246
1401.8,2204
1401.8,2144
1401.8,2084
1401.8,2024
1401.9,1946
1401.9,1898
1401.9,1802
1401.9,1682
1401.9,1622
1402,1592
1402,1520
1402,1466
1402,1454
1402,1436
1402.1,1400
1402.1,1304
1402.1,1262
1402.1,1262
1402.1,1262
1402.2,1250
1402.2,1226
1402.2,1232
1402.2,1286
1402.2,1388
1402.3,1592
1402.3,1838
1402.3,2162
1402.3,2486
1402.3,2702
1402.4,2882
1402.4,3002
1402.4,3074
1402.4,3056
1402.4,2972
1402.5,2816
1402.5,2630
1402.5,2510
1402.5,2480
1402.5,2408
1402.6,2342
1402.6,2294
1402.6,2252
1402.6,2174
1402.6,2108
1402.7,2138
1402.7,2132
1402.7,2084
1402.7,2012
1402.7,1904
1402.8,1826
1402.8,1748
1402.8,1676
1402.8,1598
1402.8,1466
1402.9,1388
1402.9,1400
1402.9,1430
1402.9,1448
1402.9,1430
1403,1394
1403,1322
1403,1214
1403,1178
1403,1196
1403.1,1214
1403.1,1202
1403.1,1166
1403.1,1142
1403.1,1196
1403.2,1262
1403.2,1334
1403.2,1406
1403.2,1586
1403.2,1820
1403.3,2072
1403.3,2384
1403.3,2660
1403.3,2864
1403.3,2996
1403.4,3056
1403.4,3050
1403.4,2990
1403.4,2894
1403.4,2798
1403.5,2666
1403.5,2570
1403.5,2504
1403.5,2414
1403.5,2354
1403.6,2300
1403.6,2288
1403.6,2282
1403.6,2222
1403.6,2168
1403.7,2114
1403.7,2072
1403.7,2006
1403.7,1970
1403.7,1958
1403.8,1910
1403.8,1814
1403.8,1718
1403.8,1670
1403.8,1604
1403.9,1562
1403.9,1526
1403.9,1460
1403.9,1406
1403.9,1424
1404,1418
1404,1376
1404,1322
1404,1292
1404,1316
1404.1,1394
1404.1,1406
1404.1,1334
1404.1,1280
1404.1,1316
1404.2,1400
1404.2,1490
1404.2,1616
1404.2,1838
1404.2,2108
1404.3,2390
1404.3,2630
1404.3,2864
1404.3,3032
1404.3,3128
1404.4,3080
1404.4,2954
1404.4,2852
1404.4,2702
1404.4,2588
1404.5,2552
1404.5,2480
1404.5,2426
1404.5,2408
1404.5,2384
1404.6,2306
1404.6,2258
1404.6,2276
1404.6,2300
1404.6,2240
1404.7,2150
1404.7,2054
1404.7,1970
1404.7,1904
1404.7,1892
1404.8,1886
1404.8,1820
1404.8,1700
1404.8,1598
1404.8,1526
1404.9,1520
1404.9,1496
1404.9,1472
1404.9,1430
1404.9,1364
1405,1316
1405,1334
1405,1370
1405,1358
1405,1352
1405.1,1304
1405.1,1286
1405.1,1304
1405.1,1358
1405.1,1496
1405.2,1712
1405.2,1976
1405.2,2276
1405.2,2558
1405.2,2774
1405.3,2906
1405.3,2978
1405.3,2984
1405.3,2942
1405.3,2864
1405.4,2762
1405.4,2684
1405.4,2606
1405.4,2468
1405.4,2354
1405.5,2270
1405.5,2222
1405.5,2210
1405.5,2228
1405.5,2276
1405.6,2306
1405.6,2276
1405.6,2222
1405.6,2174
1405.6,2150
1405.7,2072
1405.7,1982
1405.7,1922
1405.7,1856
1405.7,1784
1405.8,1694
1405.8,1628
1405.8,1544
1405.8,1454
1405.8,1364
1405.9,1358
1405.9,1418
1405.9,1448
1405.9,1472
1405.9,1466
1406,1442
1406,1454
1406,1430
1406,1388
1406,1394
1406.1,1448
1406.1,1616
1406.1,1904
1406.1,2180
1406.1,2420
1406.2,2588
1406.2,2750
1406.2,2858
1406.2,2954
1406.2,2942
1406.3,2912
1406.3,2876
1406.3,2792
1406.3,2720
1406.3,2624
1406.4,2564
1406.4,2462
1406.4,2354
1406.4,2306
1406.4,2234
1406.5,2186
1406.5,2204
1406.5,2186
1406.5,2144
1406.5,2114
1406.6,2132
1406.6,2126
1406.6,2096
1406.6,2060
1406.6,1982
1406.7,1862
1406.7,1778
1406.7,1718
1406.7,1664
1406.7,1634
1406.8,1580
1406.8,1544
1406.8,1532
1406.8,1514
1406.8,1496
1406.9,1502
1406.9,1502
1406.9,1484
1406.9,1484
1406.9,1490
1407,1484
1407,1526
1407,1700
1407,1964
1407,2168
1407.1,2366
1407.1,2612
1407.1,2786
1407.1,2894
1407.1,2972
1407.2,3008
1407.2,2990
1407.2,2894
1407.2,2786
1407.2,2696
1407.3,2642
1407.3,2582
1407.3,2528
1407.3,2456
1407.3,2402
1407.4,2366
1407.4,2318
1407.4,2240
1407.4,2162
1407.4,2150
1407.5,2156
1407.5,2096
1407.5,2036
1407.5,1994
1407.5,1976
1407.6,1940
1407.6,1922
1407.6,1850
1407.6,1766
1407.6,1730
1407.7,1694
1407.7,1664
1407.7,1598
1407.7,1544
1407.7,1496
1407.8,1484
1407.8,1508
1407.8,1514
1407.8,1490
1407.8,1454
1407.9,1448
1407.9,1406
1407.9,1370
1407.9,1412
1407.9,1550
1408,1682
1408,1892
1408,2102
1408,2378
1408,2666
1408.1,2870
1408.1,2972
1408.1,3038
1408.1,3038
1408.1,2948
1408.2,2852
1408.2,2780
1408.2,2750
1408.2,2708
1408.2,2618
1408.3,2552
1408.3,2498
1408.3,2492
1408.3,2444
1408.3,2384
1408.4,2294
1408.4,2222
1408.4,2174
1408.4,2126
1408.4,2084
1408.5,2042
1408.5,2024
1408.5,1964
1408.5,1880
1408.5,1838
1408.6,1784
1408.6,1754
1408.6,1748
1408.6,1736
1408.6,1700
1408.7,1670
1408.7,1628
1408.7,1562
1408.7,1508
1408.7,1478
1408.8,1376
1408.8,1232
1408.8,1208
1408.8,1310
1408.8,1376
1408.9,1418
1408.9,1472
1408.9,1604
1408.9,1838
1408.9,2108
1409,2348
1409,2564
1409,2792
1409,2984
1409,3068
1409.1,3068
1409.1,3026
1409.1,2990
1409.1,2912
1409.1,2810
1409.2,2684
1409.2,2570
1409.2,2468
1409.2,2420
1409.2,2408
1409.3,2408
1409.3,2348
1409.3,2294
1409.3,2288
1409.3,2300
1409.4,2288
1409.4,2216
1409.4,2102
1409.4,2024
1409.4,1946
1409.5,1850
1409.5,1760
1409.5,1742
1409.5,1760
1409.5,1730
1409.6,1688
1409.6,1622
1409.6,1532
1409.6,1394
1409.6,1322
1409.7,1364
1409.7,1436
1409.7,1448
1409.7,1406
1409.7,1394
1409.8,1388
1409.8,1370
1409.8,1382
1409.8,1550
1409.8,1784
1409.9,2012
1409.9,2276
1409.9,2546
1409.9,2732
1409.9,2822
1410,2918
1410,2972
1410,3014
1410,2936
1410,2816
1410.1,2702
1410.1,2576
1410.1,2432
1410.1,2300
1410.1,2216
1410.2,2174
1410.2,2174
1410.2,2198
1410.2,2240
1410.2,2228
1410.3,2192
1410.3,2150
1410.3,2096
1410.3,2048
1410.3,1946
1410.4,1856
1410.4,1838
1410.4,1796
1410.4,1742
1410.4,1694
1410.5,1658
1410.5,1586
1410.5,1550
1410.5,1526
1410.5,1502
1410.6,1430
1410.6,1334
1410.6,1292
1410.6,1304
1410.6,1352
1410.7,1418
1410.7,1496
1410.7,1586
1410.7,1736
1410.7,1964
1410.8,2216
1410.8,2474
1410.8,2714
1410.8,2912
1410.8,3062
1410.9,3134
1410.9,3116
1410.9,3002
1410.9,2852
1410.9,2738
1411,2696
1411,2648
1411,2576
1411,2510
1411,2456
1411.1,2414
1411.1,2390
1411.1,2450
1411.1,2426
1411.1,2384
1411.2,2366
1411.2,2354
1411.2,2324
1411.2,2264
1411.2,2150
1411.3,2042
1411.3,1970
1411.3,1868
1411.3,1784
1411.3,1736
1411.4,1694
1411.4,1604
1411.4,1544
1411.4,1550
1411.4,1598
1411.5,1586
1411.5,1562
1411.5,1526
1411.5,1442
1411.5,1388
1411.6,1412
1411.6,1484
1411.6,1592
1411.6,1730
1411.6,1922
1411.7,2120
1411.7,2396
1411.7,2606
1411.7,2834
1411.7,2966
1411.8,3026
1411.8,3110
1411.8,3146
1411.8,3128
1411.8,3056
1411.9,2942
1411.9,2828
1411.9,2720
1411.9,2618
1411.9,2522
1412,2438
1412,2408
1412,2354
1412,2270
1412,2240
1412.1,2276
1412.1,2300
1412.1,2288
1412.1,2240
1412.1,2180
1412.2,2102
1412.2,1988
1412.2,1898
1412.2,1772
1412.2,1676
1412.3,1598
1412.3,1574
1412.3,1544
1412.3,1454
1412.3,1412
1412.4,1412
1412.4,1370
1412.4,1310
1412.4,1298
1412.4,1304
1412.5,1394
1412.5,1448
1412.5,1466
1412.5,1472
1412.5,1490
1412.6,1538
1412.6,1658
1412.6,1856
1412.6,2060
1412.6,2330
1412.7,2636
1412.7,2900
1412.7,3086
1412.7,3230
1412.7,3296
1412.8,3260
1412.8,3188
1412.8,3086
1412.8,2954
1412.8,2828
1412.9,2714
1412.9,2588
1412.9,2468
1412.9,2360
1412.9,2300
1413,2306
1413,2318
1413,2348
1413,2348
1413,2294
1413.1,2246
1413.1,2144
1413.1,2060
1413.1,1982
1413.1,1940
1413.2,1916
1413.2,1844
1413.2,1772
1413.2,1682
1413.2,1556
1413.3,1484
1413.3,1454
1413.3,1406
1413.3,1376
1413.3,1364
1413.4,1376
1413.4,1424
1413.4,1448
1413.4,1466
1413.4,1472
1413.5,1478
1413.5,1478
1413.5,1430
1413.5,1424
1413.5,1514
1413.6,1622
1413.6,1718
1413.6,1910
1413.6,2174
1413.6,2462
1413.7,2702
1413.7,3032
1413.7,3230
1413.7,3278
1413.7,3260
1413.8,3194
1413.8,3086
1413.8,2954
1413.8,2852
1413.8,2756
1413.9,2654
1413.9,2558
1413.9,2450
1413.9,2330
1413.9,2258
1414,2252
1414,2264
1414,2234
1414,2174
1414,2084
1414.1,2024
1414.1,1988
1414.1,1934
1414.1,1856
1414.1,1766
1414.2,1694
1414.2,1610
1414.2,1544
1414.2,1496
1414.2,1460
1414.3,1436
1414.3,1400
1414.3,1364
1414.3,1328
1414.3,1316
1414.4,1316
1414.4,1364
1414.4,1364
1414.4,1346
1414.4,1358
1414.5,1376
1414.5,1370
1414.5,1376
1414.5,1436
1414.5,1562
1414.6,1754
1414.6,1982
1414.6,2306
1414.6,2642
1414.6,2864
1414.7,3020
1414.7,3164
1414.7,3206
1414.7,3152
1414.7,3068
1414.8,3002
1414.8,2894
1414.8,2774
1414.8,2606
1414.8,2438
1414.9,2366
1414.9,2366
1414.9,2414
1414.9,2438
1414.9,2456
1415,2486
1415,2456
1415,2366
1415,2246
1415,2162
1415.1,2126
1415.1,2072
1415.1,2042
1415.1,1964
1415.1,1874
1415.2,1820
1415.2,1760
1415.2,1670
1415.2,1562
1415.2,1448
1415.3,1382
1415.3,1376
1415.3,1364
1415.3,1370
1415.3,1400
1415.4,1382
1415.4,1394
1415.4,1388
1415.4,1406
1415.4,1478
1415.5,1628
1415.5,1862
1415.5,2108
1415.5,2438
1415.5,2714
1415.6,3002
1415.6,3206
1415.6,3308
1415.6,3350
1415.6,3356
1415.7,3278
1415.7,3158
1415.7,2996
1415.7,2852
1415.7,2726
1415.8,2654
1415.8,2600
1415.8,2546
1415.8,2474
1415.8,2390
1415.9,2366
1415.9,2354
1415.9,2366
1415.9,2360
1415.9,2318
1416,2246
1416,2132
1416,1970
1416,1862
1416,1784
1416.1,1682
1416.1,1616
1416.1,1562
1416.1,1484
1416.1,1406
1416.2,1370
1416.2,1394
1416.2,1418
1416.2,1412
1416.2,1424
1416.3,1394
1416.3,1346
1416.3,1364
1416.3,1364
1416.3,1316
1416.4,1328
1416.4,1364
1416.4,1418
1416.4,1526
1416.4,1712
1416.5,2006
1416.5,2336
1416.5,2762
1416.5,3056
1416.5,3266
1416.6,3398
1416.6,3434
1416.6,3416
1416.6,3350
1416.6,3230
1416.7,3086
1416.7,2924
1416.7,2798
1416.7,2672
1416.7,2558
1416.8,2426
1416.8,2312
1416.8,2312
1416.8,2348
1416.8,2342
1416.9,2294
1416.9,2240
1416.9,2174
1416.9,2060
1416.9,1976
1417,1928
1417,1838
1417,1730
1417,1622
1417,1562
1417.1,1502
1417.1,1460
1417.1,1448
1417.1,1442
1417.1,1424
1417.2,1376
1417.2,1316
1417.2,1244
1417.2,1208
1417.2,1208
1417.3,1190
1417.3,1190
1417.3,1202
1417.3,1256
1417.3,1256
1417.4,1268
1417.4,1412
1417.4,1670
1417.4,2018
1417.4,2402
1417.5,2762
1417.5,3026
1417.5,3236
1417.5,3332
1417.5,3356
1417.6,3344
1417.6,3362
1417.6,3314
1417.6,3134
1417.6,2924
1417.7,2744
1417.7,2600
1417.7,2498
1417.7,2432
1417.7,2396
1417.8,2342
1417.8,2312
1417.8,2270
1417.8,2252
1417.8,2252
1417.9,2204
1417.9,2114
1417.9,2012
1417.9,1916
1417.9,1862
1418,1808
1418,1766
1418,1688
1418,1568
1418,1412
1418.1,1346
1418.1,1364
1418.1,1418
1418.1,1394
1418.1,1334
1418.2,1280
1418.2,1262
1418.2,1268
1418.2,1268
1418.2,1202
1418.3,1154
1418.3,1214
1418.3,1280
1418.3,1274
1418.3,1376
1418.4,1634
1418.4,2000
1418.4,2390
1418.4,2690
1418.4,2990
1418.5,3260
1418.5,3440
1418.5,3482
1418.5,3446
1418.5,3344
1418.6,3242
1418.6,3122
1418.6,2960
1418.6,2810
1418.6,2720
1418.7,2624
1418.7,2558
1418.7,2528
1418.7,2516
1418.7,2546
1418.8,2564
1418.8,2498
1418.8,2402
1418.8,2282
1418.8,2198
1418.9,2120
1418.9,1994
1418.9,1892
1418.9,1808
1418.9,1742
1419,1670
1419,1604
1419,1538
1419,1478
1419,1436
1419.1,1364
1419.1,1286
1419.1,1214
1419.1,1172
1419.1,1160
1419.2,1190
1419.2,1220
1419.2,1256
1419.2,1292
1419.2,1286
1419.3,1280
1419.3,1382
1419.3,1646
1419.3,2000
1419.3,2432
1419.4,2822
1419.4,3134
1419.4,3344
1419.4,3458
1419.4,3506
1419.5,3470
1419.5,3392
1419.5,3344
1419.5,3248
1419.5,3104
1419.6,2942
1419.6,2792
1419.6,2684
1419.6,2582
1419.6,2486
1419.7,2408
1419.7,2354
1419.7,2288
1419.7,2216
1419.7,2180
1419.8,2168
1419.8,2066
1419.8,1976
1419.8,1916
1419.8,1844
1419.9,1766
1419.9,1700
1419.9,1646
1419.9,1610
1419.9,1532
1420,1430
1420,1298
1420,1226
1420,1214
1420,1232
1420.1,1256
1420.1,1256
1420.1,1232
1420.1,1220
1420.1,1178
1420.2,1178
1420.2,1262
1420.2,1376
1420.2,1532
1420.2,1742
1420.3,2060
1420.3,2420
1420.3,2792
1420.3,3068
1420.3,3230
1420.4,3326
1420.4,3380
1420.4,3350
1420.4,3260
1420.4,3140
1420.5,2996
1420.5,2804
1420.5,2636
1420.5,2528
1420.5,2390
1420.6,2300
1420.6,2258
1420.6,2192
1420.6,2144
1420.6,2120
1420.7,2120
1420.7,2144
1420.7,2126
1420.7,2054
1420.7,1952
1420.8,1886
1420.8,1814
1420.8,1688
1420.8,1586
1420.8,1556
1420.9,1502
1420.9,1430
1420.9,1388
1420.9,1334
1420.9,1292
1421,1232
1421,1214
1421,1226
1421,1244
1421,1208
1421.1,1190
1421.1,1214
1421.1,1280
1421.1,1424
1421.1,1652
1421.2,1976
1421.2,2360
1421.2,2768
1421.2,3110
1421.2,3392
1421.3,3542
1421.3,3590
1421.3,3584
1421.3,3458
1421.3,3242
1421.4,3092
1421.4,2924
1421.4,2780
1421.4,2690
1421.4,2618
1421.5,2510
1421.5,2432
1421.5,2402
1421.5,2366
1421.5,2306
1421.6,2234
1421.6,2174
1421.6,2108
1421.6,2018
1421.6,1922
1421.7,1856
1421.7,1796
1421.7,1772
1421.7,1670
1421.7,1538
1421.8,1472
1421.8,1406
1421.8,1382
1421.8,1346
1421.8,1292
1421.9,1220
1421.9,1154
1421.9,1124
1421.9,1106
1421.9,1106
1422,1154
1422,1190
1422,1214
1422,1250
1422,1376
1422.1,1598
1422.1,1868
1422.1,2324
1422.1,2696
1422.1,2960
1422.2,3194
1422.2,3392
1422.2,3518
1422.2,3530
1422.2,3422
1422.3,3254
1422.3,3116
1422.3,2966
1422.3,2810
1422.3,2696
1422.4,2564
1422.4,2486
1422.4,2420
1422.4,2342
1422.4,2276
1422.5,2282
1422.5,2276
1422.5,2222
1422.5,2126
1422.5,2006
1422.6,1934
1422.6,1910
1422.6,1832
1422.6,1694
1422.6,1574
1422.7,1466
1422.7,1394
1422.7,1286
1422.7,1178
1422.7,1124
1422.8,1124
1422.8,1118
1422.8,1094
1422.8,1088
1422.8,1130
1422.9,1148
1422.9,1124
1422.9,1118
1422.9,1112
1422.9,1064
1423,1040
1423,1064
1423,1196
1423,1442
1423,1772
1423.1,2186
1423.1,2612
1423.1,2972
1423.1,3254
1423.1,3440
1423.2,3572
1423.2,3542
1423.2,3410
1423.2,3248
1423.2,3092
1423.3,2978
1423.3,2846
1423.3,2654
1423.3,2498
1423.3,2372
1423.4,2318
1423.4,2348
1423.4,2336
1423.4,2318
1423.4,2306
1423.5,2210
1423.5,2108
1423.5,2078
1423.5,2048
1423.5,1952
1423.6,1832
1423.6,1688
1423.6,1556
1423.6,1466
1423.6,1376
1423.7,1304
1423.7,1250
1423.7,1226
1423.7,1202
1423.7,1196
1423.8,1226
1423.8,1208
1423.8,1178
1423.8,1106
1423.8,1064
1423.9,1076
1423.9,1112
1423.9,1082
1423.9,1118
1423.9,1160
1424,1238
1424,1448
1424,1736
1424,2078
1424,2456
1424.1,2858
1424.1,3182
1424.1,3368
1424.1,3470
1424.1,3494
1424.2,3428
1424.2,3368
1424.2,3278
1424.2,3116
1424.2,2924
1424.3,2744
1424.3,2588
1424.3,2468
1424.3,2366
1424.3,2306
1424.4,2240
1424.4,2162
1424.4,2162
1424.4,2138
1424.4,2108
1424.5,2060
1424.5,1958
1424.5,1898
1424.5,1832
1424.5,1760
1424.6,1652
1424.6,1556
1424.6,1478
1424.6,1424
1424.6,1418
1424.7,1376
1424.7,1304
1424.7,1226
1424.7,1160
1424.7,1118
1424.8,1118
1424.8,1130
1424.8,1106
1424.8,1136
1424.8,1136
1424.9,1082
1424.9,1028
1424.9,1004
1424.9,1064
1424.9,1250
1425,1496
1425,1826
1425,2234
1425,2606
1425,2936
1425.1,3230
1425.1,3452
1425.1,3542
1425.1,3506
1425.1,3392
1425.2,3230
1425.2,3056
1425.2,2882
1425.2,2732
1425.2,2600
1425.3,2480
1425.3,2408
1425.3,2330
1425.3,2240
1425.3,2186
1425.4,2192
1425.4,2204
1425.4,2144
1425.4,2078
1425.4,2042
1425.5,1988
1425.5,1922
1425.5,1850
1425.5,1748
1425.5,1622
1425.6,1514
1425.6,1412
1425.6,1370
1425.6,1340
1425.6,1268
1425.7,1220
1425.7,1184
1425.7,1124
1425.7,1118
1425.7,1130
1425.8,1142
1425.8,1160
1425.8,1178
1425.8,1220
1425.8,1310
1425.9,1496
1425.9,1778
1425.9,2162
1425.9,2570
1425.9,2942
1426,3206
1426,3440
1426,3614
1426,3698
1426,3632
1426.1,3512
1426.1,3308
1426.1,3146
1426.1,2948
1426.1,2762
1426.2,2576
1426.2,2414
1426.2,2324
1426.2,2282
1426.2,2264
1426.3,2252
1426.3,2246
1426.3,2264
1426.3,2234
1426.3,2252
1426.4,2240
1426.4,2162
1426.4,2043
1426.4,1900
1426.4,1782
1426.5,1715
1426.5,1691
1426.5,1649
1426.5,1558
1426.5,1511
1426.6,1501
1426.6,1459
1426.6,1406
1426.6,1364
1426.6,1345
1426.7,1316
1426.7,1316
1426.7,1321
1426.7,1335
1426.7,1359
1426.8,1402
1426.8,1535
1426.8,1777
1426.8,2086
1426.8,2413
1426.9,2746
1426.9,3026
1426.9,3221
1426.9,3330
1426.9,3344
1427,3264
1427,3178
1427,3093
1427,2979
1427,2803
1427.1,2646
1427.1,2518
1427.1,2432
1427.1,2394
1427.1,2347
1427.2,2328
1427.2,2314
1427.2,2290
1427.2,2261
1427.2,2209
1427.3,2133
1427.3,2086
1427.3,2033
1427.3,1976
1427.3,1905
1427.4,1805
1427.4,1748
1427.4,1701
1427.4,1644
1427.4,1563
1427.5,1511
1427.5,1492
1427.5,1425
1427.5,1368
1427.5,1387
1427.6,1368
1427.6,1311
1427.6,1278
1427.6,1278
1427.6,1297
1427.7,1326
1427.7,1345
1427.7,1402
1427.7,1525
1427.7,1725
1427.8,1986
1427.8,2299
1427.8,2627
1427.8,2903
1427.8,3064
1427.9,3169
1427.9,3254
1427.9,3268
1427.9,3235
1427.9,3150
1428,2974
1428,2770
1428,2613
1428,2485
1428,2418
1428.1,2385
1428.1,2371
1428.1,2347
1428.1,2347
1428.1,2328
1428.2,2280
1428.2,2223
1428.2,2152
1428.2,2090
1428.2,2029
1428.3,1881
1428.3,1753
1428.3,1744
1428.3,1744
1428.3,1715
1428.4,1663
1428.4,1606
1428.4,1563
1428.4,1511
1428.4,1425
1428.5,1349
1428.5,1297
1428.5,1254
1428.5,1250
1428.5,1297
1428.6,1307
1428.6,1292
1428.6,1269
1428.6,1335
1428.6,1425
1428.7,1563
1428.7,1772
1428.7,2067
1428.7,2394
1428.7,2713
1428.8,2964
1428.8,3145
1428.8,3264
1428.8,3325
1428.8,3330
1428.9,3245
1428.9,3112
1428.9,2964
1428.9,2817
1428.9,2651
1429,2518
1429,2409
1429,2347
1429,2295
1429,2233
1429.1,2209
1429.1,2190
1429.1,2185
1429.1,2124
1429.1,2021
1429.2,1958
1429.2,1909
1429.2,1864
1429.2,1811
1429.2,1744
1429.3,1680
1429.3,1624
1429.3,1579
1429.3,1538
1429.3,1504
1429.4,1481
1429.4,1478
1429.4,1478
1429.4,1425
1429.4,1391
1429.5,1384
1429.5,1376
1429.5,1395
1429.5,1406
1429.5,1406
1429.6,1466
1429.6,1609
1429.6,1823
1429.6,2055
1429.6,2314
1429.7,2591
1429.7,2809
1429.7,2929
1429.7,2966
1429.7,2933
1429.8,2884
1429.8,2816
1429.8,2666
1429.8,2528
1429.8,2449
1429.9,2351
1429.9,2276
1429.9,2209
1429.9,2156
1429.9,2164
1430,2183
1430,2186
1430,2194
1430,2141
1430,2070
1430.1,2010
1430.1,1976
1430.1,1954
1430.1,1909
1430.1,1834
1430.2,1785
1430.2,1740
1430.2,1680
1430.2,1624
1430.2,1571
1430.3,1556
1430.3,1534
1430.3,1511
1430.3,1496
1430.3,1481
1430.4,1496
1430.4,1538
1430.4,1620
1430.4,1733
1430.4,1864
1430.5,2044
1430.5,2303
1430.5,2591
1430.5,2816
1430.5,2970
1430.6,3056
1430.6,3045
1430.6,2989
1430.6,2948
1430.6,2865
1430.7,2726
1430.7,2595
1430.7,2486
1430.7,2385
1430.7,2303
1430.8,2231
1430.8,2179
1430.8,2175
1430.8,2168
1430.8,2141
1430.9,2100
1430.9,2074
1430.9,2078
1430.9,2040
1430.9,1958
1431,1886
1431,1834
1431,1793
1431,1725
1431,1669
1431.1,1646
1431.1,1594
1431.1,1541
1431.1,1496
1431.1,1459
1431.2,1455
1431.2,1481
1431.2,1493
1431.2,1496
1431.2,1515
1431.3,1579
1431.3,1673
1431.3,1830
1431.3,2066
1431.3,2318
1431.4,2546
1431.4,2730
1431.4,2876
1431.4,2959
1431.4,2966
1431.5,2936
1431.5,2884
1431.5,2783
1431.5,2696
1431.5,2588
1431.6,2456
1431.6,2314
1431.6,2224
1431.6,2179
1431.6,2156
1431.7,2149
1431.7,2126
1431.7,2111
1431.7,2066
1431.7,2010
1431.8,1984
1431.8,1954
1431.8,1898
1431.8,1853
1431.8,1808
1431.9,1763
1431.9,1688
1431.9,1609
1431.9,1568
1431.9,1541
1432,1545
1432,1560
1432,1549
1432,1530
1432,1496
1432.1,1463
1432.1,1470
1432.1,1523
1432.1,1620
1432.1,1793
1432.2,2010
1432.2,2258
1432.2,2509
1432.2,2696
1432.2,2801
1432.3,2873
1432.3,2865
1432.3,2813
1432.3,2756
1432.3,2674
1432.4,2561
1432.4,2460
1432.4,2370
1432.4,2276
1432.4,2198
1432.5,2145
1432.5,2123
1432.5,2123
1432.5,2108
1432.5,2089
1432.6,2063
1432.6,2018
1432.6,1954
1432.6,1883
1432.6,1819
1432.7,1755
1432.7,1703
1432.7,1624
1432.7,1556
1432.7,1538
1432.8,1523
1432.8,1526
1432.8,1504
1432.8,1489
1432.8,1541
1432.9,1661
1432.9,1838
1432.9,2051
1432.9,2280
1432.9,2471
1433,2618
1433,2708
1433,2749
1433,2753
1433,2741
1433.1,2693
1433.1,2599
1433.1,2479
1433.1,2336
1433.1,2216
1433.2,2126
1433.2,2063
1433.2,2025
1433.2,1976
1433.2,1920
1433.3,1909
1433.3,1928
1433.3,1898
1433.3,1845
1433.3,1804
1433.4,1766
1433.4,1740
1433.4,1729
1433.4,1680
1433.4,1631
1433.5,1564
1433.5,1523
1433.5,1485
1433.5,1444
1433.5,1421
1433.6,1418
1433.6,1466
1433.6,1575
1433.6,1763
1433.6,1958
1433.7,2186
1433.7,2456
1433.7,2618
1433.7,2730
1433.7,2794
1433.8,2813
1433.8,2786
1433.8,2726
1433.8,2629
1433.8,2520
1433.9,2400
1433.9,2295
1433.9,2123
1433.9,2010
1433.9,1958
1434,1943
1434,1943
1434,1928
1434,1879
1434,1808
1434.1,1770
1434.1,1759
1434.1,1733
1434.1,1684
1434.1,1616
1434.2,1560
1434.2,1515
1434.2,1440
1434.2,1391
1434.2,1361
1434.3,1339
1434.3,1331
1434.3,1324
1434.3,1313
1434.3,1290
1434.4,1256
1434.4,1256
1434.4,1324
1434.4,1463
1434.4,1688
1434.5,1939
1434.5,2171
1434.5,2396
1434.5,2595
1434.5,2726
1434.6,2745
1434.6,2708
1434.6,2640
1434.6,2569
1434.6,2479
1434.7,2355
1434.7,2235
1434.7,2134
1434.7,2063
1434.7,2025
1434.8,2021
1434.8,2010
1434.8,1976
1434.8,1946
1434.8,1920
1434.9,1883
1434.9,1845
1434.9,1811
1434.9,1759
1434.9,1676
1435,1628
1435,1579
1435,1560
1435,1526
1435,1463
1435.1,1406
1435.1,1354
1435.1,1313
1435.1,1268
1435.1,1264
1435.2,1275
1435.2,1268
1435.2,1286
1435.2,1350
1435.2,1496
1435.3,1691
1435.3,1909
1435.3,2130
1435.3,2336
1435.3,2471
1435.4,2550
1435.4,2576
1435.4,2580
1435.4,2580
1435.4,2543
1435.5,2475
1435.5,2411
1435.5,2321
1435.5,2201
1435.5,2089
1435.6,2040
1435.6,2029
1435.6,2029
1435.6,2021
1435.6,1991
1435.7,1954
1435.7,1901
1435.7,1871
1435.7,1849
1435.7,1800
1435.8,1755
1435.8,1733
1435.8,1710
1435.8,1684
1435.8,1639
1435.9,1568
1435.9,1511
1435.9,1496
1435.9,1515
1435.9,1545
1436,1538
1436,1534
1436,1594
1436,1706
1436,1856
1436.1,2010
1436.1,2205
1436.1,2396
1436.1,2535
1436.1,2618
1436.2,2670
1436.2,2685
1436.2,2681
1436.2,2663
1436.2,2633
1436.3,2588
1436.3,2528
1436.3,2453
1436.3,2359
1436.3,2291
1436.4,2243
1436.4,2216
1436.4,2194
1436.4,2156
1436.4,2104
1436.5,2063
1436.5,2018
1436.5,1950
1436.5,1898
1436.5,1856
1436.6,1811
1436.6,1763
1436.6,1706
1436.6,1684
1436.6,1650
1436.7,1631
1436.7,1628
1436.7,1605
1436.7,1594
1436.7,1601
1436.8,1575
1436.8,1553
1436.8,1579
1436.8,1665
1436.8,1793
1436.9,1954
1436.9,2126
1436.9,2276
1436.9,2419
1436.9,2550
1437,2610
1437,2629
1437,2633
1437,2606
1437,2554
1437.1,2468
1437.1,2393
1437.1,2336
1437.1,2261
1437.1,2213
1437.2,2171
1437.2,2134
1437.2,2111
1437.2,2093
1437.2,2078
1437.3,2048
1437.3,2010
1437.3,1967
1437.3,1915
1437.3,1867
1437.4,1820
1437.4,1763
1437.4,1696
1437.4,1625
1437.4,1592
1437.5,1539
1437.5,1468
1437.5,1454
1437.5,1506
1437.5,1511
1437.6,1459
1437.6,1397
1437.6,1383
1437.6,1368
1437.6,1354
1437.7,1430
1437.7,1573
1437.7,1720
1437.7,1886
1437.7,2071
1437.8,2280
1437.8,2466
1437.8,2613
1437.8,2698
1437.8,2708
1437.9,2613
1437.9,2494
1437.9,2399
1437.9,2328
1437.9,2266
1438,2209
1438,2176
1438,2133
1438,2086
1438,2024
1438.1,1943
1438.1,1915
1438.1,1905
1438.1,1910
1438.1,1891
1438.2,1839
1438.2,1753
1438.2,1682
1438.2,1672
1438.2,1672
1438.3,1653
1438.3,1592
1438.3,1525
1438.3,1454
1438.3,1397
1438.4,1364
1438.4,1378
1438.4,1373
1438.4,1368
1438.4,1359
1438.5,1364
1438.5,1373
1438.5,1364
1438.5,1397
1438.5,1525
1438.6,1710
1438.6,1900
1438.6,2057
1438.6,2171
