710.98,1767
711,1694
711.02,1605
711.04,1635
711.06,1679
711.08,1723
711.1,1767
711.12,1812
711.14,1959
711.16,2298
711.18,2593
711.2,2770
711.22,2888
711.24,3006
711.26,3021
711.28,2888
711.3,2726
711.32,2638
711.34,2638
711.36,2652
711.38,2564
711.4,2505
711.42,2431
711.44,2505
711.46,2549
711.48,2534
711.5,2608
711.52,2638
711.54,2579
711.56,2461
711.58,2372
711.6,2328
711.62,2254
711.64,2195
711.66,2195
711.68,2107
711.7,1959
711.72,1738
711.74,1620
711.76,1487
711.78,1413
711.8,1413
711.82,1487
711.84,1664
711.86,1723
711.88,1871
711.9,2003
711.92,2062
711.94,2210
711.96,2387
711.98,2623
712,2844
712.02,2992
712.04,3139
712.06,3183
712.08,3183
712.1,3154
712.12,3154
712.14,3051
712.16,2903
712.18,2815
712.2,2726
712.22,2682
712.24,2711
712.26,2638
712.28,2638
712.3,2623
712.32,2564
712.34,2446
712.36,2343
712.38,2402
712.4,2416
712.42,2284
712.44,2151
712.46,2033
712.48,2033
712.5,1930
712.52,1826
712.54,1723
712.56,1664
712.58,1694
712.6,1679
712.62,1605
712.64,1561
712.66,1472
712.68,1266
712.7,1192
712.72,1251
712.74,1413
712.76,1694
712.78,2033
712.8,2313
712.82,2520
712.84,2756
712.86,2888
712.88,3021
712.9,3095
712.92,2992
712.94,2947
712.96,3006
712.98,2874
713,2711
713.02,2652
713.04,2608
713.06,2564
713.08,2520
713.1,2402
713.12,2166
713.14,2062
713.16,2151
713.18,2298
713.2,2461
713.22,2520
713.24,2461
713.26,2357
713.28,2284
713.3,2136
713.32,1915
713.34,1797
713.36,1694
713.38,1605
713.4,1502
713.42,1399
713.44,1458
713.46,1413
713.48,1281
713.5,1192
713.52,1325
713.54,1517
713.56,1738
713.58,1959
713.6,2225
713.62,2593
713.64,2903
713.66,2962
713.68,2962
713.7,3021
713.72,3006
713.74,3021
713.76,3080
713.78,2992
713.8,2844
713.82,2770
713.84,2667
713.86,2564
713.88,2564
713.9,2579
713.92,2638
713.94,2638
713.96,2475
713.98,2284
714,2328
714.02,2387
714.04,2387
714.06,2210
714.08,2018
714.1,1885
714.12,1797
714.14,1797
714.16,1723
714.18,1576
714.2,1399
714.22,1399
714.24,1310
714.26,1177
714.28,1177
714.3,1177
714.32,1192
714.34,1472
714.36,1812
714.38,2180
714.4,2534
714.42,2888
714.44,3110
714.46,3124
714.48,3213
714.5,3257
714.52,3169
714.54,2977
714.56,2844
714.58,2667
714.6,2416
714.62,2328
714.64,2343
714.66,2357
714.68,2284
714.7,2121
714.72,1885
714.74,1767
714.76,1738
714.78,1679
714.8,1708
714.82,1708
714.84,1546
714.86,1443
714.88,1472
714.9,1428
714.92,1236
714.94,1059
714.96,971
714.98,853
715,735
715.02,809
715.04,1236
715.06,1694
715.08,2048
715.1,2357
715.12,2638
715.14,2785
715.16,2874
715.18,2888
715.2,2947
715.22,3095
715.24,2933
715.26,2593
715.28,2416
715.3,2269
715.32,2033
715.34,1885
715.36,1944
715.38,1885
715.4,1871
715.42,1871
715.44,1797
715.46,1679
715.48,1620
715.5,1502
715.52,1340
715.54,1118
715.56,1118
715.58,1281
715.6,1413
715.62,1369
715.64,1222
715.66,1104
715.68,956
715.7,794
715.72,602
715.74,558
715.76,661
715.78,1015
715.8,1295
715.82,1576
715.84,1841
715.86,2048
715.88,2180
715.9,2254
715.92,2402
715.94,2431
715.96,2328
715.98,2254
716,2151
716.02,1959
716.04,1871
716.06,1915
716.08,1944
716.1,1856
716.12,1767
716.14,1738
716.16,1694
716.18,1590
716.2,1605
716.22,1635
716.24,1664
716.26,1679
716.28,1649
716.3,1531
716.32,1531
716.34,1472
716.36,1384
716.38,1310
716.4,1222
716.42,1104
716.44,941
716.46,986
716.48,1045
716.5,1015
716.52,823
716.54,735
716.56,750
716.58,927
716.6,1207
716.62,1531
716.64,1797
716.66,1900
716.68,1944
716.7,2180
716.72,2416
716.74,2505
716.76,2564
716.78,2534
716.8,2402
716.82,2254
716.84,2254
716.86,2210
716.88,2180
716.9,2107
716.92,2092
716.94,2048
716.96,1812
716.98,1694
717,1871
717.02,1885
717.04,1782
717.06,1679
717.08,1664
717.1,1664
717.12,1472
717.14,1399
717.16,1413
717.18,1472
717.2,1517
717.22,1369
717.24,1295
717.26,1266
717.28,1163
717.3,1030
717.32,1059
717.34,1177
717.36,1281
717.38,1310
717.4,1325
717.42,1310
717.44,1472
717.46,1871
717.48,1989
717.5,2018
717.52,2195
717.54,2343
717.56,2372
717.58,2357
717.6,2402
717.62,2431
717.64,2446
717.66,2623
717.68,2682
717.7,2726
717.72,2800
717.74,2874
717.76,2785
717.78,2697
717.8,2682
717.82,2652
717.84,2520
717.86,2416
717.88,2284
717.9,2107
717.92,1974
717.94,1900
717.96,1826
717.98,1694
718,1664
718.02,1679
718.04,1723
718.06,1885
718.08,1915
718.1,1782
718.12,1605
718.14,1531
718.16,1517
718.18,1502
718.2,1531
718.22,1531
718.24,1517
718.26,1649
718.28,1989
718.3,2313
718.32,2608
718.34,2741
718.36,2667
718.38,2623
718.4,2667
718.42,2800
718.44,2844
718.46,2800
718.48,2726
718.5,2652
718.52,2505
718.54,2372
718.56,2416
718.58,2475
718.6,2505
718.62,2520
718.64,2416
718.66,2284
718.68,2284
718.7,2284
718.72,2298
718.74,2195
718.76,2107
718.78,2018
718.8,1974
718.82,1915
718.84,1812
718.86,1708
718.88,1605
718.9,1531
718.92,1531
718.94,1590
718.96,1620
718.98,1546
719,1531
719.02,1561
719.04,1517
719.06,1502
719.08,1531
719.1,1605
719.12,1753
719.14,1944
719.16,2195
719.18,2387
719.2,2490
719.22,2505
719.24,2520
719.26,2549
719.28,2593
719.3,2608
719.32,2534
719.34,2402
719.36,2298
719.38,2210
719.4,2166
719.42,2077
719.44,2062
719.46,2195
719.48,2239
719.5,2239
719.52,2239
719.54,2225
719.56,2166
719.58,2077
719.6,1930
719.62,1782
719.64,1738
719.66,1753
719.68,1708
719.7,1635
719.72,1620
719.74,1605
719.76,1546
719.78,1325
719.8,1281
719.82,1487
719.84,1546
719.86,1561
719.88,1546
719.9,1531
719.92,1531
719.94,1664
719.96,1930
719.98,2180
720,2475
720.02,2667
720.04,2770
720.06,2874
720.08,2947
720.1,3036
720.12,3110
720.14,3124
720.16,2977
720.18,2933
720.2,2829
720.22,2682
720.24,2579
720.26,2549
720.28,2593
720.3,2682
720.32,2756
720.34,2770
720.36,2711
720.38,2623
720.4,2490
720.42,2387
720.44,2372
720.46,2431
720.48,2461
720.5,2357
720.52,2225
720.54,2033
720.56,1900
720.58,1782
720.6,1708
720.62,1561
720.64,1413
720.66,1399
720.68,1472
720.7,1487
720.72,1531
720.74,1605
720.76,1664
720.78,1738
720.8,1959
720.82,2239
720.84,2475
720.86,2667
720.88,2888
720.9,3051
720.92,3065
720.94,2844
720.96,2697
720.98,2726
721,2815
721.02,2711
721.04,2593
721.06,2490
721.08,2446
721.1,2446
721.12,2534
721.14,2623
721.16,2652
721.18,2593
721.2,2475
721.22,2313
721.24,2195
721.26,2151
721.28,2033
721.3,2092
721.32,2136
721.34,2225
721.36,2195
721.38,2018
721.4,1900
721.42,1900
721.44,1900
721.46,1782
721.48,1546
721.5,1458
721.52,1472
721.54,1620
721.56,1694
721.58,1723
721.6,1782
721.62,1738
721.64,1767
721.66,1753
721.68,1738
721.7,1841
721.72,2092
721.74,2313
721.76,2387
721.78,2387
721.8,2357
721.82,2343
721.84,2357
721.86,2357
721.88,2372
721.9,2416
721.92,2357
721.94,2298
721.96,2225
721.98,2121
722,2121
722.02,2195
722.04,2210
722.06,2048
722.08,1900
722.1,1915
722.12,1989
722.14,2003
722.16,2077
722.18,2225
722.2,2225
722.22,2107
722.24,1885
722.26,1738
722.28,1664
722.3,1723
722.32,1620
722.34,1369
722.36,1266
722.38,1207
722.4,1251
722.42,1354
722.44,1472
722.46,1458
722.48,1428
722.5,1399
722.52,1443
722.54,1649
722.56,1915
722.58,2239
722.6,2461
722.62,2638
722.64,2623
722.66,2667
722.68,2741
722.7,2756
722.72,2549
722.74,2313
722.76,2254
722.78,2166
722.8,2077
722.82,2033
722.84,2062
722.86,2077
722.88,2121
722.9,2166
722.92,2195
722.94,2180
722.96,2121
722.98,2077
723,2018
723.02,2003
723.04,1974
723.06,1871
723.08,1708
723.1,1649
723.12,1620
723.14,1590
723.16,1635
723.18,1664
723.2,1590
723.22,1472
723.24,1502
723.26,1576
723.28,1531
723.3,1369
723.32,1340
723.34,1413
723.36,1458
723.38,1546
723.4,1738
723.42,1797
723.44,1885
723.46,2062
723.48,2313
723.5,2549
723.52,2711
723.54,2800
723.56,2829
723.58,2829
723.6,2785
723.62,2756
723.64,2697
723.66,2549
723.68,2431
723.7,2298
723.72,2357
723.74,2461
723.76,2431
723.78,2313
723.8,2284
723.82,2210
723.84,2254
723.86,2357
723.88,2446
723.9,2416
723.92,2298
723.94,2254
723.96,2298
723.98,2328
724,2298
724.02,2239
724.04,2195
724.06,2166
724.08,2092
724.1,2018
724.12,1930
724.14,1767
724.16,1517
724.18,1472
724.2,1531
724.22,1635
724.24,1871
724.26,2062
724.28,2254
724.3,2520
724.32,2756
724.34,2874
724.36,2888
724.38,2874
724.4,3006
724.42,3095
724.44,3006
724.46,2903
724.48,2726
724.5,2667
724.52,2711
724.54,2770
724.56,2756
724.58,2770
724.6,2800
724.62,2756
724.64,2593
724.66,2534
724.68,2534
724.7,2490
724.72,2431
724.74,2387
724.76,2387
724.78,2416
724.8,2431
724.82,2564
724.84,2549
724.86,2431
724.88,2387
724.9,2387
724.92,2284
724.94,2328
724.96,2284
724.98,2180
725,2092
725.02,2077
725.04,1944
725.06,1812
725.08,1841
725.1,2018
725.12,2180
725.14,2328
725.16,2638
725.18,2815
725.2,2992
725.22,3110
725.24,3257
725.26,3287
725.28,3213
725.3,3154
725.32,3095
725.34,3021
725.36,3021
725.38,3006
725.4,2962
725.42,2829
725.44,2697
725.46,2726
725.48,2697
725.5,2623
725.52,2667
725.54,2652
725.56,2505
725.58,2298
725.6,2195
725.62,2151
725.64,2062
725.66,2062
725.68,2048
725.7,2033
725.72,2092
725.74,2121
725.76,2121
725.78,2062
725.8,1974
725.82,1944
725.84,1915
725.86,1782
725.88,1738
725.9,1871
725.92,2092
725.94,2328
725.96,2446
725.98,2549
726,2564
726.02,2623
726.04,2726
726.06,2859
726.08,2859
726.1,2785
726.12,2682
726.14,2534
726.16,2446
726.18,2372
726.2,2357
726.22,2431
726.24,2461
726.26,2520
726.28,2534
726.3,2416
726.32,2298
726.34,2372
726.36,2416
726.38,2387
726.4,2357
726.42,2313
726.44,2328
726.46,2343
726.48,2180
726.5,2077
726.52,2136
726.54,2166
726.56,2048
726.58,1915
726.6,1679
726.62,1487
726.64,1413
726.66,1354
726.68,1295
726.7,1399
726.72,1694
726.74,2033
726.76,2357
726.78,2608
726.8,2785
726.82,2962
726.84,2947
726.86,2785
726.88,2682
726.9,2711
726.92,2711
726.94,2711
726.96,2682
726.98,2579
727,2431
727.02,2505
727.04,2505
727.06,2416
727.08,2328
727.1,2328
727.12,2475
727.14,2579
727.16,2608
727.18,2564
727.2,2387
727.22,2195
727.24,2107
727.26,2136
727.28,2062
727.3,1885
727.32,1841
727.34,1871
727.36,1841
727.38,1812
727.4,1679
727.42,1502
727.44,1458
727.46,1399
727.48,1428
727.5,1384
727.52,1281
727.54,1295
727.56,1399
727.58,1649
727.6,1974
727.62,2313
727.64,2623
727.66,2859
727.68,2933
727.7,2918
727.72,2977
727.74,2992
727.76,2992
727.78,2977
727.8,2844
727.82,2667
727.84,2475
727.86,2387
727.88,2372
727.9,2416
727.92,2446
727.94,2416
727.96,2298
727.98,2239
728,2180
728.02,2151
728.04,2107
728.06,1974
728.08,1826
728.1,1900
728.12,1826
728.14,1782
728.16,1797
728.18,1708
728.2,1531
728.22,1531
728.24,1458
728.26,1428
728.28,1399
728.3,1413
728.32,1517
728.34,1635
728.36,1723
728.38,1797
728.4,1900
728.42,2092
728.44,2357
728.46,2593
728.48,2682
728.5,2711
728.52,2829
728.54,2903
728.56,2844
728.58,2697
728.6,2579
728.62,2564
728.64,2564
728.66,2534
728.68,2549
728.7,2608
728.72,2652
728.74,2579
728.76,2343
728.78,2195
728.8,2328
728.82,2416
728.84,2254
728.86,2151
728.88,2136
728.9,2298
728.92,2284
728.94,2298
728.96,2284
728.98,2254
729,2180
729.02,2062
729.04,1974
729.06,1871
729.08,1738
729.1,1635
729.12,1605
729.14,1517
729.16,1472
729.18,1590
729.2,1826
729.22,2092
729.24,2328
729.26,2402
729.28,2446
729.3,2402
729.32,2372
729.34,2446
729.36,2608
729.38,2623
729.4,2623
729.42,2652
729.44,2593
729.46,2608
729.48,2638
729.5,2564
729.52,2505
729.54,2608
729.56,2579
729.58,2328
729.6,2225
729.62,2284
729.64,2239
729.66,2180
729.68,2136
729.7,2136
729.72,2003
729.74,1841
729.76,1753
729.78,1664
729.8,1576
729.82,1443
729.84,1207
729.86,1295
729.88,1369
729.9,1428
729.92,1487
729.94,1487
729.96,1487
729.98,1531
730,1620
730.02,1767
730.04,1989
730.06,2166
730.08,2357
730.1,2593
730.12,2800
730.14,2888
730.16,2874
730.18,2874
730.2,2844
730.22,2726
730.24,2579
730.26,2416
730.28,2254
730.3,2151
730.32,2136
730.34,2210
730.36,2166
730.38,2107
730.4,2107
730.42,2136
730.44,2136
730.46,2107
730.48,1944
730.5,1871
730.52,1826
730.54,1753
730.56,1561
730.58,1458
730.6,1413
730.62,1472
730.64,1428
730.66,1295
730.68,1236
730.7,1236
730.72,1222
730.74,1192
730.76,1163
730.78,1059
730.8,1074
730.82,1222
730.84,1399
730.86,1649
730.88,1826
730.9,2033
730.92,2298
730.94,2505
730.96,2623
730.98,2623
731,2549
731.02,2461
731.04,2343
731.06,2298
731.08,2166
731.1,2107
731.12,2062
731.14,2107
731.16,2136
731.18,2121
731.2,2136
731.22,2151
731.24,2180
731.26,2092
731.28,1841
731.3,1694
731.32,1664
731.34,1635
731.36,1664
731.38,1708
731.4,1694
731.42,1590
731.44,1428
731.46,1340
731.48,1266
731.5,1340
731.52,1399
731.54,1310
731.56,1236
731.58,1163
731.6,1015
731.62,941
731.64,1059
731.66,1207
731.68,1487
731.7,1826
731.72,2077
731.74,2254
731.76,2313
731.78,2372
731.8,2343
731.82,2284
731.84,2343
731.86,2461
731.88,2387
731.9,2254
731.92,2239
731.94,2225
731.96,2254
731.98,2269
732,2284
732.02,2269
732.04,2195
732.06,2107
732.08,1989
732.1,1959
732.12,2077
732.14,2136
732.16,2003
732.18,1944
732.2,1930
732.22,1871
732.24,1812
732.26,1782
732.28,1708
732.3,1546
732.32,1369
732.34,1413
732.36,1487
732.38,1531
732.4,1502
732.42,1428
732.44,1428
732.46,1590
732.48,1826
732.5,2003
732.52,2121
732.54,2210
732.56,2313
732.58,2534
732.6,2623
732.62,2623
732.64,2697
732.66,2652
732.68,2505
732.7,2461
732.72,2387
732.74,2195
732.76,2048
732.78,1974
732.8,2062
732.82,2166
732.84,2166
732.86,2092
732.88,2107
732.9,2121
732.92,1959
732.94,1856
732.96,1900
732.98,1944
733,1930
733.02,1826
733.04,1738
733.06,1664
733.08,1635
733.1,1546
733.12,1472
733.14,1502
733.16,1487
733.18,1561
733.2,1635
733.22,1738
733.24,1944
733.26,2180
733.28,2402
733.3,2520
733.32,2534
733.34,2490
733.36,2520
733.38,2579
733.4,2593
733.42,2520
733.44,2475
733.46,2416
733.48,2239
733.5,2166
733.52,2166
733.54,2166
733.56,2225
733.58,2313
733.6,2402
733.62,2461
733.64,2416
733.66,2284
733.68,2239
733.7,2239
733.72,2151
733.74,1944
733.76,1605
733.78,1354
733.8,1340
733.82,1531
733.84,1797
733.86,1930
733.88,1885
733.9,1767
733.92,1561
733.94,1531
733.96,1546
733.98,1738
734,1989
734.02,2136
734.04,2269
734.06,2475
734.08,2520
734.1,2534
734.12,2549
734.14,2579
734.16,2608
734.18,2520
734.2,2564
734.22,2682
734.24,2756
734.26,2682
734.28,2505
734.3,2298
734.32,2092
734.34,2077
734.36,2121
734.38,2151
734.4,2077
734.42,2003
734.44,1871
734.46,1871
734.48,1856
734.5,1944
734.52,2003
734.54,2033
734.56,1989
734.58,1797
734.6,1664
734.62,1664
734.64,1738
734.66,1723
734.68,1605
734.7,1413
734.72,1354
734.74,1384
734.76,1531
734.78,1649
734.8,1841
734.82,2121
734.84,2254
734.86,2446
734.88,2579
734.9,2667
734.92,2667
734.94,2667
734.96,2770
734.98,2800
735,2711
735.02,2667
735.04,2534
735.06,2446
735.08,2357
735.1,2239
735.12,2210
735.14,2225
735.16,2239
735.18,2225
735.2,2254
735.22,2239
735.24,2210
735.26,2077
735.28,2077
735.3,2077
735.32,2062
735.34,2048
735.36,1974
735.38,1930
735.4,1989
735.42,1841
735.44,1664
735.46,1561
735.48,1413
735.5,1266
735.52,1192
735.54,1192
735.56,1222
735.58,1281
735.6,1369
735.62,1517
735.64,1679
735.66,1826
735.68,1944
735.7,2166
735.72,2416
735.74,2682
735.76,2874
735.78,2859
735.8,2726
735.82,2726
735.84,2711
735.86,2623
735.88,2549
735.9,2505
735.92,2387
735.94,2298
735.96,2298
735.98,2402
736,2446
736.02,2431
736.04,2372
736.06,2313
736.08,2166
736.1,2092
736.12,2092
736.14,2136
736.16,2136
736.18,2121
736.2,2003
736.22,1930
736.24,1797
736.26,1753
736.28,1856
736.3,1826
736.32,1708
736.34,1723
736.36,1723
736.38,1605
736.4,1620
736.42,1708
736.44,1826
736.46,2003
736.48,2239
736.5,2431
736.52,2446
736.54,2490
736.56,2697
736.58,3006
736.6,3169
736.62,3110
736.64,2903
736.66,2711
736.68,2593
736.7,2505
736.72,2254
736.74,2180
736.76,2313
736.78,2298
736.8,2313
736.82,2239
736.84,2284
736.86,2328
736.88,2269
736.9,2254
736.92,2284
736.94,2195
736.96,2033
736.98,1885
737,1782
737.02,1767
737.04,1782
737.06,1753
737.08,1694
737.1,1590
737.12,1472
737.14,1472
737.16,1428
737.18,1487
737.2,1531
737.22,1487
737.24,1428
737.26,1458
737.28,1590
737.3,1841
737.32,2062
737.34,2284
737.36,2416
737.38,2593
737.4,2844
737.42,3021
737.44,3110
737.46,3036
737.48,2859
737.5,2756
737.52,2652
737.54,2593
737.56,2534
737.58,2520
737.6,2579
737.62,2608
737.64,2697
737.66,2667
737.68,2520
737.7,2402
737.72,2284
737.74,2225
737.76,2239
737.78,2269
737.8,2210
737.82,2062
737.84,1944
737.86,1841
737.88,1797
737.9,1753
737.92,1590
737.94,1428
737.96,1384
737.98,1487
738,1635
738.02,1561
738.04,1428
738.06,1458
738.08,1635
738.1,1856
738.12,2107
738.14,2372
738.16,2608
738.18,2844
738.2,2977
738.22,3036
738.24,2992
738.26,2977
738.28,3110
738.3,3183
738.32,3006
738.34,2756
738.36,2638
738.38,2682
738.4,2815
738.42,3006
738.44,3065
738.46,2933
738.48,2726
738.5,2608
738.52,2475
738.54,2431
738.56,2475
738.58,2416
738.6,2239
738.62,1959
738.64,1738
738.66,1767
738.68,1871
738.7,1871
738.72,1708
738.74,1517
738.76,1517
738.78,1531
738.8,1487
738.82,1413
738.84,1517
738.86,1649
738.88,1679
738.9,1753
738.92,1900
738.94,2062
738.96,2284
738.98,2416
739,2534
739.02,2711
739.04,2859
739.06,3036
739.08,2977
739.1,2903
739.12,2888
739.14,2859
739.16,2800
739.18,2726
739.2,2593
739.22,2461
739.24,2298
739.26,2166
739.28,2077
739.3,2136
739.32,2239
739.34,2357
739.36,2387
739.38,2284
739.4,2136
739.42,2151
739.44,2077
739.46,1900
739.48,1708
739.5,1590
739.52,1517
739.54,1517
739.56,1487
739.58,1413
739.6,1295
739.62,1207
739.64,1045
739.66,941
739.68,912
739.7,897
739.72,1015
739.74,1325
739.76,1649
739.78,1885
739.8,2166
739.82,2357
739.84,2520
739.86,2682
739.88,2829
739.9,2874
739.92,2770
739.94,2579
739.96,2387
739.98,2254
740,2180
740.02,2107
740.04,2018
740.06,1959
740.08,1959
740.1,2018
740.12,2018
740.14,2018
740.16,1930
740.18,1885
740.2,1841
740.22,1753
740.24,1576
740.26,1517
740.28,1428
740.3,1354
740.32,1266
740.34,1222
740.36,1192
740.38,1030
740.4,794
740.42,691
740.44,705
740.46,779
740.48,882
740.5,1074
740.52,1325
740.54,1517
740.56,1635
740.58,1753
740.6,1856
740.62,2033
740.64,2284
740.66,2534
740.68,2726
740.7,2859
740.72,2933
740.74,2933
740.76,2874
740.78,2667
740.8,2475
740.82,2328
740.84,2313
740.86,2298
740.88,2298
740.9,2313
740.92,2298
740.94,2416
740.96,2534
740.98,2475
741,2313
741.02,2269
741.04,2298
741.06,2298
741.08,2210
741.1,1930
741.12,1738
741.14,1605
741.16,1620
741.18,1605
741.2,1531
741.22,1590
741.24,1708
741.26,1708
741.28,1590
741.3,1531
741.32,1561
741.34,1664
741.36,1841
741.38,2298
741.4,2726
741.42,3021
741.44,3228
741.46,3198
741.48,3051
741.5,3051
741.52,3124
741.54,3051
741.56,2933
741.58,2829
741.6,2770
741.62,2638
741.64,2534
741.66,2475
741.68,2343
741.7,2254
741.72,2180
741.74,2210
741.76,2136
741.78,2166
741.8,2033
741.82,1885
741.84,1826
741.86,1738
741.88,1649
741.9,1546
741.92,1561
741.94,1561
741.96,1458
741.98,1413
742,1443
742.02,1531
742.04,1723
742.06,1930
742.08,2092
742.1,2210
742.12,2298
742.14,2549
742.16,2859
742.18,3051
742.2,3080
742.22,3080
742.24,3065
742.26,3006
742.28,2888
742.3,2815
742.32,2785
742.34,2859
742.36,2844
742.38,2770
742.4,2711
742.42,2697
742.44,2608
742.46,2682
742.48,2608
742.5,2357
742.52,2313
742.54,2357
742.56,2254
742.58,2048
742.6,2003
742.62,2003
742.64,1930
742.66,1900
742.68,1753
742.7,1635
742.72,1605
742.74,1649
742.76,1797
742.78,2107
742.8,2475
742.82,2756
742.84,2992
742.86,3154
742.88,3228
742.9,3183
742.92,3154
742.94,2992
742.96,2770
742.98,2711
743,2785
743.02,2888
743.04,2962
743.06,2918
743.08,2770
743.1,2667
743.12,2652
743.14,2608
743.16,2490
743.18,2357
743.2,2210
743.22,2033
743.24,1900
743.26,1812
743.28,1694
743.3,1694
743.32,1708
743.34,1679
743.36,1664
743.38,1664
743.4,1753
743.42,1841
743.44,1915
743.46,2048
743.48,2343
743.5,2711
743.52,2903
743.54,2874
743.56,2888
743.58,2977
743.6,3021
743.62,2903
743.64,2623
743.66,2416
743.68,2284
743.7,2166
743.72,2107
743.74,2180
743.76,2210
743.78,2136
743.8,2033
743.82,1944
743.84,1885
743.86,1797
743.88,1708
743.9,1826
743.92,1812
743.94,1635
743.96,1561
743.98,1472
744,1310
744.02,1236
744.04,1207
744.06,1163
744.08,1236
744.1,1340
744.12,1531
744.14,1708
744.16,1915
744.18,2136
744.2,2254
744.22,2269
744.24,2313
744.26,2402
744.28,2416
744.3,2210
744.32,2136
744.34,2107
744.36,2033
744.38,2033
744.4,2018
744.42,1974
744.44,1974
744.46,1915
744.48,1812
744.5,1694
744.52,1605
744.54,1605
744.56,1605
744.58,1576
744.6,1531
744.62,1399
744.64,1133
744.66,971
744.68,912
744.7,941
744.72,971
744.74,1030
744.76,941
744.78,720
744.8,587
744.82,720
744.84,986
744.86,1251
744.88,1649
744.9,2018
744.92,2239
744.94,2490
744.96,2652
744.98,2652
745,2623
745.02,2490
745.04,2402
745.06,2328
745.08,2210
745.1,2107
745.12,2062
745.14,2033
745.16,2166
745.18,2254
745.2,2254
745.22,2239
745.24,2166
745.26,2107
745.28,2048
745.3,1915
745.32,1871
745.34,1856
745.36,1826
745.38,1723
745.4,1531
745.42,1443
745.44,1310
745.46,1266
745.48,1384
745.5,1487
745.52,1413
745.54,1266
745.56,1148
745.58,1118
745.6,1207
745.62,1340
745.64,1546
745.66,1826
745.68,2077
745.7,2372
745.72,2638
745.74,2800
745.76,2874
745.78,2874
745.8,2859
745.82,2815
745.84,2756
745.86,2785
745.88,2682
745.9,2505
745.92,2372
745.94,2269
745.96,2239
745.98,2357
746,2387
746.02,2343
746.04,2387
746.06,2431
746.08,2357
746.1,2136
746.12,1915
746.14,1841
746.16,1812
746.18,1723
746.2,1664
746.22,1590
746.24,1605
746.26,1590
746.28,1502
746.3,1384
746.32,1251
746.34,1177
746.36,1177
746.38,1266
746.4,1399
746.42,1502
746.44,1767
746.46,2018
746.48,2195
746.5,2372
746.52,2534
746.54,2785
746.56,2962
746.58,3051
746.6,2947
746.62,2874
746.64,2829
746.66,2829
746.68,2815
746.7,2711
746.72,2741
746.74,2800
746.76,2726
746.78,2667
746.8,2431
746.82,2239
746.84,2195
746.86,2180
746.88,2180
746.9,2062
746.92,1944
746.94,1856
746.96,1797
746.98,1738
747,1502
747.02,1384
747.04,1413
747.06,1428
747.08,1472
747.1,1531
747.12,1458
747.14,1428
747.16,1340
747.18,1177
747.2,1192
747.22,1458
747.24,1694
747.26,1974
747.28,2357
747.3,2667
747.32,2962
747.34,3124
747.36,3301
747.38,3419
747.4,3464
747.42,3346
747.44,3080
747.46,2844
747.48,2667
747.5,2608
747.52,2593
747.54,2534
747.56,2505
747.58,2549
747.6,2593
747.62,2520
747.64,2431
747.66,2225
747.68,2121
747.7,1944
747.72,1885
747.74,1930
747.76,1826
747.78,1753
747.8,1767
747.82,1767
747.84,1708
747.86,1576
747.88,1428
747.9,1369
747.92,1443
747.94,1428
747.96,1236
747.98,1015
748,823
748.02,764
748.04,809
748.06,927
748.08,1148
748.1,1369
748.12,1664
748.14,1959
748.16,2210
748.18,2416
748.2,2726
748.22,2903
748.24,2859
748.26,2682
748.28,2623
748.3,2505
748.32,2357
748.34,2180
748.36,2151
748.38,2166
748.4,2151
748.42,2166
748.44,2121
748.46,2121
748.48,2195
748.5,2284
748.52,2328
748.54,2121
748.56,1959
748.58,1797
748.6,1605
748.62,1502
748.64,1428
748.66,1413
748.68,1369
748.7,1354
748.72,1340
748.74,1266
748.76,1192
748.78,1074
748.8,971
748.82,1015
748.84,1059
748.86,1089
748.88,1059
748.9,971
748.92,956
748.94,1045
748.96,1222
748.98,1295
749,1517
749.02,1856
749.04,2121
749.06,2416
749.08,2593
749.1,2579
749.12,2520
749.14,2490
749.16,2431
749.18,2343
749.2,2269
749.22,2254
749.24,2254
749.26,2210
749.28,2151
749.3,2048
749.32,1871
749.34,1782
749.36,1885
749.38,2018
749.4,2121
749.42,2077
749.44,2003
749.46,1959
749.48,1915
749.5,1856
749.52,1753
749.54,1679
749.56,1708
749.58,1694
749.6,1458
749.62,1236
749.64,1222
749.66,1325
749.68,1325
749.7,1266
749.72,1236
749.74,1310
749.76,1458
749.78,1576
749.8,1635
749.82,1635
749.84,1664
749.86,1812
749.88,2033
749.9,2357
749.92,2579
749.94,2756
749.96,2829
749.98,2903
750,2962
750.02,3095
750.04,3110
750.06,2992
750.08,2962
750.1,2977
750.12,2947
750.14,2888
750.16,2815
750.18,2785
750.2,2756
750.22,2726
750.24,2579
750.26,2446
750.28,2328
750.3,2298
750.32,2195
750.34,2151
750.36,2210
750.38,2180
750.4,2107
750.42,1944
750.44,1930
750.46,1856
750.48,1871
750.5,1930
750.52,1944
750.54,1944
750.56,1841
750.58,1605
750.6,1546
750.62,1531
750.64,1502
750.66,1458
750.68,1531
750.7,1679
750.72,1930
750.74,2387
750.76,2829
750.78,3036
750.8,3065
750.82,3036
750.84,2962
750.86,2844
750.88,2770
750.9,2815
750.92,2888
750.94,2800
750.96,2608
750.98,2461
751,2254
751.02,2180
751.04,2298
751.06,2416
751.08,2416
751.1,2431
751.12,2387
751.14,2298
751.16,2180
751.18,2092
751.2,2136
751.22,2121
751.24,2003
751.26,1797
751.28,1679
751.3,1620
751.32,1590
751.34,1723
751.36,1944
751.38,1974
751.4,1856
751.42,1767
751.44,1753
751.46,1797
751.48,1826
751.5,1782
751.52,1723
751.54,1826
751.56,2033
751.58,2254
751.6,2372
751.62,2490
751.64,2608
751.66,2829
751.68,3065
751.7,3154
751.72,3095
751.74,3006
751.76,2977
751.78,2962
751.8,2918
751.82,2903
751.84,2800
751.86,2593
751.88,2638
751.9,2726
751.92,2756
751.94,2785
751.96,2770
751.98,2682
752,2490
752.02,2343
752.04,2298
752.06,2298
752.08,2210
752.1,2107
752.12,2033
752.14,2077
752.16,2166
752.18,2151
752.2,2107
752.22,1989
752.24,1885
752.26,1871
752.28,1812
752.3,1649
752.32,1502
752.34,1399
752.36,1354
752.38,1354
752.4,1399
752.42,1428
752.44,1546
752.46,1871
752.48,2254
752.5,2593
752.52,2918
752.54,3051
752.56,3051
752.58,3036
752.6,3139
752.62,3213
752.64,3242
752.66,3183
752.68,3065
752.7,2947
752.72,2844
752.74,2652
752.76,2505
752.78,2490
752.8,2593
752.82,2638
752.84,2549
752.86,2461
752.88,2298
752.9,2254
752.92,2387
752.94,2461
752.96,2372
752.98,2180
753,2003
753.02,1974
753.04,1974
753.06,1900
753.08,1753
753.1,1635
753.12,1517
753.14,1443
753.16,1399
753.18,1340
753.2,1266
753.22,1133
753.24,1030
753.26,1045
753.28,1177
753.3,1236
753.32,1369
753.34,1708
753.36,2077
753.38,2343
753.4,2652
753.42,2844
753.44,2859
753.46,2770
753.48,2829
753.5,3051
753.52,3198
753.54,3051
753.56,2859
753.58,2711
753.6,2667
753.62,2608
753.64,2549
753.66,2446
753.68,2357
753.7,2490
753.72,2520
753.74,2431
753.76,2298
753.78,2107
753.8,1944
753.82,1856
753.84,1708
753.86,1664
753.88,1856
753.9,2033
753.92,1974
753.94,1841
753.96,1723
753.98,1605
754,1487
754.02,1413
754.04,1487
754.06,1413
754.08,1295
754.1,1295
754.12,1310
754.14,1354
754.16,1428
754.18,1487
754.2,1679
754.22,2062
754.24,2343
754.26,2490
754.28,2549
754.3,2623
754.32,2726
754.34,2815
754.36,2874
754.38,2844
754.4,2711
754.42,2638
754.44,2490
754.46,2328
754.48,2284
754.5,2269
754.52,2195
754.54,2092
754.56,2048
754.58,2048
754.6,2018
754.62,1989
754.64,1944
754.66,1841
754.68,1723
754.7,1767
754.72,1723
754.74,1797
754.76,1856
754.78,1885
754.8,1782
754.82,1605
754.84,1531
754.86,1502
754.88,1428
754.9,1428
754.92,1443
754.94,1502
754.96,1531
754.98,1413
755,1458
755.02,1679
755.04,1974
755.06,2180
755.08,2357
755.1,2549
755.12,2770
755.14,2800
755.16,2741
755.18,2711
755.2,2638
755.22,2549
755.24,2490
755.26,2534
755.28,2579
755.3,2534
755.32,2431
755.34,2313
755.36,2225
755.38,2269
755.4,2328
755.42,2313
755.44,2269
755.46,2195
755.48,2121
755.5,2107
755.52,2077
755.54,2048
755.56,2062
755.58,1900
755.6,1797
755.62,1753
755.64,1605
755.66,1443
755.68,1413
755.7,1458
755.72,1561
755.74,1723
755.76,1679
755.78,1472
755.8,1399
755.82,1340
755.84,1399
755.86,1605
755.88,1871
755.9,2151
755.92,2298
755.94,2520
755.96,2800
755.98,2888
756,2918
756.02,2903
756.04,2815
756.06,2756
756.08,2667
756.1,2475
756.12,2357
756.14,2269
756.16,2254
756.18,2446
756.2,2638
756.22,2844
756.24,2785
756.26,2623
756.28,2593
756.3,2593
756.32,2461
756.34,2416
756.36,2431
756.38,2520
756.4,2534
756.42,2505
756.44,2402
756.46,2195
756.48,1959
756.5,1826
756.52,1723
756.54,1561
756.56,1458
756.58,1546
756.6,1576
756.62,1590
756.64,1649
756.66,1856
756.68,2092
756.7,2284
756.72,2387
756.74,2564
756.76,2888
756.78,3095
756.8,3287
756.82,3375
756.84,3301
756.86,3272
756.88,3272
756.9,3257
756.92,3154
756.94,3006
756.96,2888
756.98,2711
757,2593
757.02,2593
757.04,2608
757.06,2623
757.08,2682
757.1,2711
757.12,2770
757.14,2815
757.16,2844
757.18,2741
757.2,2593
757.22,2402
757.24,2284
757.26,2239
757.28,2136
757.3,2018
757.32,1797
757.34,1708
757.36,1767
757.38,1812
757.4,1782
757.42,1841
757.44,1900
757.46,1930
757.48,1856
757.5,1797
757.52,1900
757.54,2092
757.56,2166
757.58,2313
757.6,2534
757.62,2844
757.64,3006
757.66,3139
757.68,3198
757.7,3124
757.72,2888
757.74,2667
757.76,2579
757.78,2549
757.8,2534
757.82,2549
757.84,2520
757.86,2475
757.88,2402
757.9,2372
757.92,2416
757.94,2357
757.96,2284
757.98,2328
758,2328
758.02,2225
758.04,2121
758.06,2033
758.08,1930
758.1,1782
758.12,1502
758.14,1399
758.16,1413
758.18,1413
758.2,1399
758.22,1354
758.24,1222
758.26,1089
758.28,1045
758.3,1089
758.32,1295
758.34,1576
758.36,1767
758.38,1944
758.4,2225
758.42,2505
758.44,2711
758.46,2844
758.48,2903
758.5,2874
758.52,2770
758.54,2593
758.56,2534
758.58,2564
758.6,2564
758.62,2475
758.64,2343
758.66,2298
758.68,2254
758.7,2239
758.72,2210
758.74,2284
758.76,2225
758.78,2077
758.8,1885
758.82,1767
758.84,1753
758.86,1767
758.88,1738
758.9,1605
758.92,1487
758.94,1561
758.96,1531
758.98,1399
759,1369
759.02,1354
759.04,1369
759.06,1266
759.08,1163
759.1,1074
759.12,986
759.14,956
759.16,941
759.18,956
759.2,1118
759.22,1295
759.24,1546
759.26,1944
759.28,2195
759.3,2313
759.32,2357
759.34,2431
759.36,2520
759.38,2534
759.4,2534
759.42,2534
759.44,2461
759.46,2328
759.48,2269
759.5,2239
759.52,2298
759.54,2298
759.56,2180
759.58,2107
759.6,2180
759.62,2239
759.64,2136
759.66,1944
759.68,1664
759.7,1590
759.72,1635
759.74,1753
759.76,1797
759.78,1723
759.8,1590
759.82,1517
759.84,1517
759.86,1502
759.88,1487
759.9,1458
759.92,1399
759.94,1340
759.96,1325
759.98,1310
760,1148
760.02,1015
760.04,1059
760.06,1236
760.08,1354
760.1,1531
760.12,1826
760.14,2195
760.16,2490
760.18,2726
760.2,2888
760.22,2947
760.24,2903
760.26,2844
760.28,2667
760.3,2520
760.32,2402
760.34,2505
760.36,2505
760.38,2431
760.4,2461
760.42,2416
760.44,2284
760.46,2284
760.48,2343
760.5,2313
760.52,2239
760.54,2195
760.56,2033
760.58,1930
760.6,1974
760.62,2003
760.64,1915
760.66,1856
760.68,1812
760.7,1738
760.72,1708
760.74,1620
760.76,1443
760.78,1487
760.8,1531
760.82,1531
760.84,1458
760.86,1428
760.88,1340
760.9,1251
760.92,1177
760.94,1236
760.96,1384
760.98,1664
761,2003
761.02,2284
761.04,2549
761.06,2682
761.08,2726
761.1,2726
761.12,2815
761.14,2829
761.16,2785
761.18,2682
761.2,2505
761.22,2387
761.24,2416
761.26,2431
761.28,2431
761.3,2431
761.32,2490
761.34,2534
761.36,2534
761.38,2416
761.4,2254
761.42,2107
761.44,2018
761.46,1944
761.48,1856
761.5,1797
761.52,1649
761.54,1635
761.56,1635
761.58,1649
761.6,1590
761.62,1487
761.64,1354
761.66,1295
761.68,1310
761.7,1399
761.72,1443
761.74,1413
761.76,1354
761.78,1340
761.8,1369
761.82,1517
761.84,1708
761.86,2003
761.88,2298
761.9,2475
761.92,2608
761.94,2711
761.96,2815
761.98,2888
762,2844
762.02,2770
762.04,2741
762.06,2697
762.08,2726
762.1,2711
762.12,2623
762.14,2579
762.16,2623
762.18,2446
762.2,2195
762.22,2062
762.24,1974
762.26,1944
762.28,1944
762.3,1989
762.32,1974
762.34,2033
762.36,2077
762.38,2048
762.4,1871
762.42,1649
762.44,1458
762.46,1354
762.48,1325
762.5,1354
762.52,1384
762.54,1369
762.56,1295
762.58,1310
762.6,1340
762.62,1399
762.64,1443
762.66,1664
762.68,2003
762.7,2284
762.72,2505
762.74,2697
762.76,2800
762.78,2829
762.8,2903
762.82,2947
762.84,2785
762.86,2697
762.88,2652
762.9,2667
762.92,2756
762.94,2785
762.96,2815
762.98,2682
763,2520
763.02,2579
763.04,2579
763.06,2623
763.08,2520
763.1,2402
763.12,2416
763.14,2461
763.16,2298
763.18,1944
763.2,1797
763.22,1723
763.24,1708
763.26,1723
763.28,1812
763.3,1841
763.32,1812
763.34,1767
763.36,1635
763.38,1428
763.4,1295
763.42,1266
763.44,1222
763.46,1266
763.48,1192
763.5,1148
763.52,1192
763.54,1399
763.56,1664
763.58,2003
763.6,2254
763.62,2402
763.64,2505
763.66,2756
763.68,3021
763.7,3110
763.72,3198
763.74,3242
763.76,3198
763.78,3169
763.8,3169
763.82,3065
763.84,2933
763.86,2785
763.88,2638
763.9,2623
763.92,2711
763.94,2726
763.96,2667
763.98,2505
764,2328
764.02,2313
764.04,2254
764.06,2092
764.08,1944
764.1,1885
764.12,1767
764.14,1620
764.16,1561
764.18,1576
764.2,1679
764.22,1694
764.24,1635
764.26,1517
764.28,1472
764.3,1428
764.32,1369
764.34,1340
764.36,1340
764.38,1354
764.4,1458
764.42,1694
764.44,1930
764.46,2195
764.48,2475
764.5,2800
764.52,3124
764.54,3316
764.56,3390
764.58,3360
764.6,3331
764.62,3242
764.64,3154
764.66,2947
764.68,2741
764.7,2549
764.72,2534
764.74,2593
764.76,2549
764.78,2446
764.8,2416
764.82,2475
764.84,2475
764.86,2461
764.88,2387
764.9,2284
764.92,2195
764.94,2151
764.96,2166
764.98,2136
765,2018
765.02,1871
765.04,1708
765.06,1723
765.08,1694
765.1,1664
765.12,1561
765.14,1458
765.16,1340
765.18,1266
765.2,1251
765.22,1163
765.24,1118
765.26,1295
765.28,1590
765.3,2003
765.32,2416
765.34,2697
765.36,2903
765.38,3051
765.4,3183
765.42,3169
765.44,2962
765.46,2859
765.48,2874
765.5,2888
765.52,2711
765.54,2475
765.56,2328
765.58,2269
765.6,2313
765.62,2298
765.64,2210
765.66,2225
765.68,2269
765.7,2313
765.72,2239
765.74,2092
765.76,2092
765.78,2048
765.8,1944
765.82,1826
765.84,1694
765.86,1561
765.88,1458
765.9,1399
765.92,1266
765.94,1045
765.96,897
765.98,794
766,705
766.02,809
766.04,1089
766.06,1340
766.08,1546
766.1,1856
766.12,2195
766.14,2475
766.16,2756
766.18,2918
766.2,2888
766.22,2933
766.24,2918
766.26,2815
766.28,2667
766.3,2520
766.32,2343
766.34,2225
766.36,2210
766.38,2254
766.4,2254
766.42,2284
766.44,2254
766.46,2254
766.48,2166
766.5,2092
766.52,2018
766.54,1900
766.56,1856
766.58,1708
766.6,1590
766.62,1664
766.64,1679
766.66,1576
766.68,1428
766.7,1310
766.72,1222
766.74,1251
766.76,1340
766.78,1369
766.8,1384
766.82,1354
766.84,1340
766.86,1310
766.88,1458
766.9,1797
766.92,2048
766.94,2387
766.96,2623
766.98,2874
767,3051
767.02,3080
767.04,3036
767.06,2977
767.08,2947
767.1,2859
767.12,2829
767.14,2785
767.16,2829
767.18,2829
767.2,2667
767.22,2520
767.24,2549
767.26,2608
767.28,2593
767.3,2549
767.32,2431
767.34,2357
767.36,2343
767.38,2343
767.4,2136
767.42,2062
767.44,2092
767.46,1989
767.48,1871
767.5,1797
767.52,1664
767.54,1561
767.56,1561
767.58,1620
767.6,1531
767.62,1354
767.64,1281
767.66,1340
767.68,1472
767.7,1694
767.72,1782
767.74,1885
767.76,2048
767.78,2357
767.8,2756
767.82,3036
767.84,3213
767.86,3257
767.88,3242
767.9,3169
767.92,3198
767.94,3183
767.96,3139
767.98,3065
768,2903
768.02,2829
768.04,2770
768.06,2874
768.08,2933
768.1,2859
768.12,2682
768.14,2549
768.16,2505
768.18,2446
768.2,2313
768.22,2195
768.24,2121
768.26,2092
768.28,2048
768.3,1959
768.32,1708
768.34,1487
768.36,1413
768.38,1310
768.4,1236
768.42,1281
768.44,1251
768.46,1104
768.48,1089
768.5,1118
768.52,1177
768.54,1251
768.56,1340
768.58,1590
768.6,1812
768.62,2018
768.64,2490
768.66,2962
768.68,3287
768.7,3360
768.72,3434
768.74,3508
768.76,3493
768.78,3434
768.8,3331
768.82,3169
768.84,3021
768.86,2977
768.88,2859
768.9,2741
768.92,2697
768.94,2711
768.96,2697
768.98,2608
769,2564
769.02,2490
769.04,2269
769.06,2003
769.08,1753
769.1,1723
769.12,1767
769.14,1708
769.16,1487
769.18,1413
769.2,1266
769.22,1030
769.24,941
769.26,1059
769.28,1222
769.3,1118
769.32,1045
769.34,1148
769.36,1251
769.38,1177
769.4,1118
769.42,1163
769.44,1354
769.46,1635
769.48,1989
769.5,2357
769.52,2579
769.54,2667
769.56,2741
769.58,2770
769.6,2741
769.62,2741
769.64,2682
769.66,2564
769.68,2402
769.7,2254
769.72,2121
769.74,2062
769.76,2092
769.78,2077
769.8,2018
769.82,1944
769.84,1826
769.86,1812
769.88,1797
769.9,1649
769.92,1694
769.94,1708
769.96,1546
769.98,1384
770,1354
770.02,1413
770.04,1428
770.06,1281
770.08,1222
770.1,1192
770.12,1163
770.14,1045
770.16,897
770.18,912
770.2,971
770.22,971
770.24,1000
770.26,1059
770.28,1207
770.3,1517
770.32,1930
770.34,2210
770.36,2475
770.38,2579
770.4,2638
770.42,2593
770.44,2505
770.46,2579
770.48,2564
770.5,2534
770.52,2608
770.54,2564
770.56,2431
770.58,2402
770.6,2387
770.62,2402
770.64,2431
770.66,2269
770.68,2062
770.7,1974
770.72,1959
770.74,1930
770.76,2033
770.78,2077
770.8,2048
770.82,2018
770.84,1885
770.86,1679
770.88,1472
770.9,1354
770.92,1354
770.94,1310
770.96,1236
770.98,1177
771,1177
771.02,1251
771.04,1281
771.06,1266
771.08,1207
771.1,1104
771.12,1118
771.14,1236
771.16,1487
771.18,1753
771.2,1915
771.22,2180
771.24,2490
771.26,2770
771.28,2918
771.3,3006
771.32,2992
771.34,3006
771.36,3006
771.38,2947
771.4,2888
771.42,2741
771.44,2652
771.46,2564
771.48,2490
771.5,2461
771.52,2372
771.54,2298
771.56,2225
771.58,2210
771.6,2195
771.62,2121
771.64,2121
771.66,2239
771.68,2225
771.7,2136
771.72,2003
771.74,1841
771.76,1723
771.78,1708
771.8,1694
771.82,1531
771.84,1428
771.86,1310
771.88,1222
771.9,1310
771.92,1340
771.94,1325
771.96,1458
771.98,1590
772,1708
772.02,1782
772.04,1989
772.06,2210
772.08,2372
772.1,2520
772.12,2682
772.14,2888
772.16,3110
772.18,3154
772.2,3110
772.22,2947
772.24,2815
772.26,2888
772.28,2903
772.3,2844
772.32,2711
772.34,2667
772.36,2638
772.38,2579
772.4,2579
772.42,2608
772.44,2608
772.46,2623
772.48,2608
772.5,2534
772.52,2461
772.54,2343
772.56,2195
772.58,2121
772.6,2062
772.62,2107
772.64,2121
772.66,2018
772.68,1871
772.7,1708
772.72,1517
772.74,1428
772.76,1399
772.78,1399
772.8,1458
772.82,1531
772.84,1531
772.86,1546
772.88,1679
772.9,1944
772.92,2136
772.94,2343
772.96,2682
772.98,2962
773,2962
773.02,2947
773.04,2962
773.06,2903
773.08,2903
773.1,2918
773.12,2859
773.14,2756
773.16,2593
773.18,2387
773.2,2239
773.22,2269
773.24,2298
773.26,2328
773.28,2284
773.3,2254
773.32,2151
773.34,2048
773.36,2018
773.38,1989
773.4,1930
773.42,1856
773.44,1753
773.46,1723
773.48,1620
773.5,1546
773.52,1546
773.54,1487
773.56,1251
773.58,1118
773.6,1104
773.62,1089
773.64,1148
773.66,1266
773.68,1443
773.7,1605
773.72,1694
773.74,1797
773.76,2121
773.78,2357
773.8,2490
773.82,2534
773.84,2549
773.86,2638
773.88,2726
773.9,2726
773.92,2652
773.94,2667
773.96,2608
773.98,2475
774,2416
774.02,2343
774.04,2269
774.06,2180
774.08,2136
774.1,2077
774.12,1959
774.14,1812
774.16,1723
774.18,1679
774.2,1635
774.22,1605
774.24,1502
774.26,1443
774.28,1369
774.3,1399
774.32,1428
774.34,1325
774.36,1059
774.38,853
774.4,853
774.42,1000
774.44,1236
774.46,1369
774.48,1399
774.5,1531
774.52,1635
774.54,1708
774.56,1738
774.58,1841
774.6,2107
774.62,2328
774.64,2446
774.66,2520
774.68,2623
774.7,2711
774.72,2741
774.74,2667
774.76,2579
774.78,2564
774.8,2623
774.82,2593
774.84,2387
774.86,2269
774.88,2284
774.9,2357
774.92,2298
774.94,2313
774.96,2387
774.98,2328
775,2195
775.02,2062
775.04,1900
775.06,1841
775.08,1900
775.1,2033
775.12,2077
775.14,1974
775.16,1812
775.18,1812
775.2,1841
775.22,1767
775.24,1590
775.26,1546
775.28,1576
775.3,1458
775.32,1310
775.34,1281
775.36,1251
775.38,1354
775.4,1354
775.42,1399
775.44,1546
775.46,1782
775.48,1930
775.5,2092
775.52,2343
775.54,2549
775.56,2697
775.58,2741
775.6,2593
775.62,2490
775.64,2505
775.66,2534
775.68,2564
775.7,2475
775.72,2431
775.74,2475
775.76,2475
775.78,2416
775.8,2446
775.82,2446
775.84,2343
775.86,2254
775.88,2166
775.9,2136
775.92,2048
775.94,1871
775.96,1708
775.98,1664
776,1738
776.02,1841
776.04,1856
776.06,1812
776.08,1708
776.1,1635
776.12,1517
776.14,1458
776.16,1472
776.18,1502
776.2,1517
776.22,1487
776.24,1546
776.26,1546
776.28,1605
776.3,1797
776.32,2003
776.34,2136
776.36,2225
776.38,2446
776.4,2711
776.42,2800
776.44,2888
776.46,2977
776.48,3006
776.5,3051
776.52,2962
776.54,2756
776.56,2623
776.58,2608
776.6,2579
776.62,2446
776.64,2416
776.66,2475
776.68,2475
776.7,2579
776.72,2770
776.74,2741
776.76,2549
776.78,2357
776.8,2284
776.82,2313
776.84,2313
776.86,2254
776.88,2107
776.9,1885
776.92,1782
776.94,1753
776.96,1694
776.98,1664
777,1753
777.02,1797
777.04,1664
777.06,1605
777.08,1649
777.1,1649
777.12,1635
777.14,1649
777.16,1826
777.18,2033
777.2,2225
777.22,2505
777.24,2770
777.26,3021
777.28,3110
777.3,3080
777.32,3065
777.34,3051
777.36,3006
777.38,2933
777.4,2815
777.42,2579
777.44,2402
777.46,2446
777.48,2608
777.5,2756
777.52,2800
777.54,2711
777.56,2638
777.58,2579
777.6,2505
777.62,2446
777.64,2387
777.66,2313
777.68,2166
777.7,2018
777.72,1900
777.74,1871
777.76,1767
777.78,1605
777.8,1458
777.82,1369
777.84,1281
777.86,1310
777.88,1354
777.9,1251
777.92,1340
777.94,1502
777.96,1590
777.98,1605
778,1694
778.02,1826
778.04,1989
778.06,2284
778.08,2652
778.1,2800
778.12,2874
778.14,3006
778.16,3110
778.18,3183
778.2,3198
778.22,3139
778.24,3095
778.26,3065
778.28,2947
778.3,2859
778.32,2741
778.34,2593
778.36,2475
778.38,2372
778.4,2372
778.42,2387
778.44,2372
778.46,2313
778.48,2121
778.5,1944
778.52,1930
778.54,2033
778.56,2136
778.58,2151
778.6,2107
778.62,2062
778.64,2018
778.66,1944
778.68,1826
778.7,1723
778.72,1708
778.74,1797
778.76,1767
778.78,1546
778.8,1443
778.82,1428
778.84,1399
778.86,1531
778.88,1767
778.9,2048
778.92,2239
778.94,2520
778.96,2815
778.98,3051
779,3242
779.02,3316
779.04,3331
779.06,3346
779.08,3301
779.1,3139
779.12,2918
779.14,2756
779.16,2667
779.18,2638
779.2,2667
779.22,2682
779.24,2652
779.26,2534
779.28,2549
779.3,2579
779.32,2446
779.34,2372
779.36,2328
779.38,2254
779.4,2136
779.42,2003
779.44,1900
779.46,1856
779.48,1723
779.5,1723
779.52,1753
779.54,1753
779.56,1782
779.58,1708
779.6,1576
779.62,1413
779.64,1384
779.66,1428
779.68,1354
779.7,1222
779.72,1177
779.74,1133
779.76,1089
779.78,1222
779.8,1502
779.82,1856
779.84,2239
779.86,2579
779.88,2815
779.9,2977
779.92,3036
779.94,3065
779.96,3139
779.98,3095
780,3065
780.02,2933
780.04,2800
780.06,2711
780.08,2579
780.1,2505
780.12,2579
780.14,2608
780.16,2652
780.18,2638
780.2,2638
780.22,2564
780.24,2505
780.26,2357
780.28,2254
780.3,2313
780.32,2328
780.34,2284
780.36,2210
780.38,2092
780.4,1930
780.42,1782
780.44,1620
780.46,1487
780.48,1369
780.5,1251
780.52,1236
780.54,1133
780.56,1015
780.58,986
780.6,971
780.62,986
780.64,1133
780.66,1281
780.68,1413
780.7,1679
780.72,2048
780.74,2505
780.76,2844
780.78,3213
780.8,3331
780.82,3198
780.84,3080
780.86,3036
780.88,3036
780.9,2992
780.92,3006
780.94,3006
780.96,3065
780.98,3051
781,2977
781.02,2918
781.04,2844
781.06,2667
781.08,2505
781.1,2387
781.12,2357
781.14,2475
781.16,2475
781.18,2357
781.2,2210
781.22,2092
781.24,1826
781.26,1649
781.28,1517
781.3,1472
781.32,1502
781.34,1605
781.36,1694
781.38,1708
781.4,1590
781.42,1472
781.44,1251
781.46,956
781.48,823
781.5,1015
781.52,1281
781.54,1472
781.56,1679
781.58,1959
781.6,2136
781.62,2461
781.64,2697
781.66,2815
781.68,2844
781.7,2903
781.72,3095
781.74,3316
781.76,3390
781.78,3228
781.8,3021
781.82,2815
781.84,2800
781.86,2815
781.88,2756
781.9,2726
781.92,2593
781.94,2416
781.96,2313
781.98,2269
782,2269
782.02,2269
782.04,2180
782.06,2003
782.08,1797
782.1,1664
782.12,1635
782.14,1561
782.16,1428
782.18,1340
782.2,1281
782.22,1236
782.24,1207
782.26,1192
782.28,1148
782.3,1074
782.32,1045
782.34,1059
782.36,1089
782.38,1281
782.4,1546
782.42,1826
782.44,2195
782.46,2534
782.48,2874
782.5,3169
782.52,3390
782.54,3582
782.56,3508
782.58,3287
782.6,3301
782.62,3434
782.64,3346
782.66,3257
782.68,3228
782.7,3183
782.72,3036
782.74,2888
782.76,2800
782.78,2667
782.8,2579
782.82,2564
782.84,2505
782.86,2343
782.88,2092
782.9,1989
782.92,1900
782.94,1723
782.96,1738
782.98,1708
783,1546
783.02,1399
783.04,1354
783.06,1266
783.08,1089
783.1,1015
783.12,927
783.14,823
783.16,764
783.18,750
783.2,764
783.22,838
783.24,1133
783.26,1443
783.28,1782
783.3,2254
783.32,2741
783.34,3154
783.36,3360
783.38,3478
783.4,3582
783.42,3567
783.44,3478
783.46,3375
783.48,3331
783.5,3301
783.52,3154
783.54,2829
783.56,2475
783.58,2446
783.6,2623
783.62,2667
783.64,2652
783.66,2741
783.68,2711
783.7,2593
783.72,2446
783.74,2239
783.76,2180
783.78,2136
783.8,2107
783.82,1974
783.84,1708
783.86,1590
783.88,1517
783.9,1546
783.92,1487
783.94,1399
783.96,1222
783.98,986
784,794
784.02,764
784.04,750
784.06,691
784.08,676
784.1,735
784.12,779
784.14,1030
784.16,1443
784.18,1812
784.2,2151
784.22,2534
784.24,2829
784.26,3036
784.28,3183
784.3,3316
784.32,3242
784.34,3095
784.36,2962
784.38,2829
784.4,2549
784.42,2284
784.44,2195
784.46,2151
784.48,2166
784.5,2121
784.52,2180
784.54,2284
784.56,2239
784.58,2062
784.6,1826
784.62,1546
784.64,1517
784.66,1531
784.68,1472
784.7,1281
784.72,1104
784.74,1059
784.76,1059
784.78,1000
784.8,809
784.82,691
784.84,705
784.86,735
784.88,676
784.9,514
784.92,440
784.94,514
784.96,587
784.98,602
785,632
785.02,750
785.04,1074
785.06,1487
785.08,1885
785.1,2166
785.12,2461
785.14,2770
785.16,2962
785.18,3065
785.2,3080
785.22,3021
785.24,2962
785.26,2844
785.28,2682
785.3,2623
785.32,2682
785.34,2652
785.36,2520
785.38,2372
785.4,2343
785.42,2328
785.44,2284
785.46,2225
785.48,2107
785.5,1885
785.52,1767
785.54,1723
785.56,1649
785.58,1561
785.6,1354
785.62,1281
785.64,1266
785.66,1192
785.68,1059
785.7,971
785.72,971
785.74,1059
785.76,1059
785.78,956
785.8,794
785.82,735
785.84,735
785.86,823
785.88,927
785.9,1059
785.92,1413
785.94,1753
785.96,2092
785.98,2461
786,2874
786.02,3169
786.04,3301
786.06,3390
786.08,3405
786.1,3346
786.12,3213
786.14,2918
786.16,2638
786.18,2593
786.2,2711
786.22,2638
786.24,2416
786.26,2298
786.28,2357
786.3,2313
786.32,2180
786.34,2180
786.36,2225
786.38,2166
786.4,2121
786.42,2151
786.44,2136
786.46,2166
786.48,2151
786.5,2036
786.52,1895
786.54,1742
786.56,1589
786.58,1484
786.6,1448
786.62,1437
786.64,1390
786.66,1354
786.68,1343
786.7,1331
786.72,1354
786.74,1472
786.76,1695
786.78,1965
786.8,2118
786.82,2306
786.84,2529
786.86,2670
786.88,2753
786.9,2905
786.92,2941
786.94,2858
786.96,2811
786.98,2682
787,2553
787.02,2518
787.04,2506
787.06,2553
787.08,2553
787.1,2482
787.12,2400
787.14,2306
787.16,2200
787.18,2177
787.2,2189
787.22,2212
787.24,2189
787.26,2071
787.28,2012
787.3,2012
787.32,1977
787.34,1871
787.36,1730
787.38,1601
787.4,1460
787.42,1378
787.44,1390
787.46,1401
787.48,1413
787.5,1378
787.52,1378
787.54,1413
787.56,1495
787.58,1554
787.6,1683
787.62,1942
787.64,2259
787.66,2647
787.68,2929
787.7,3199
787.72,3340
787.74,3434
787.76,3422
787.78,3305
787.8,3223
787.82,3140
787.84,2894
787.86,2565
787.88,2565
787.9,2753
787.92,2811
787.94,2764
787.96,2670
787.98,2635
788,2612
788.02,2659
788.04,2588
788.06,2506
788.08,2471
788.1,2365
788.12,2236
788.14,2106
788.16,2071
788.18,2106
788.2,2036
788.22,1895
788.24,1742
788.26,1636
788.28,1531
788.3,1401
788.32,1260
788.34,1190
788.36,1190
788.38,1354
788.4,1413
788.42,1343
788.44,1366
788.46,1589
788.48,1848
788.5,2048
788.52,2247
788.54,2341
788.56,2494
788.58,2764
788.6,2999
788.62,3058
788.64,2952
788.66,2952
788.68,2988
788.7,2941
788.72,2964
788.74,2929
788.76,2882
788.78,2847
788.8,2741
788.82,2694
788.84,2623
788.86,2588
788.88,2482
788.9,2353
788.92,2283
788.94,2353
788.96,2353
788.98,2318
789,2153
789.02,1989
789.04,1883
789.06,1742
789.08,1589
789.1,1401
789.12,1237
789.14,1166
789.16,1202
789.18,1249
789.2,1225
789.22,1178
789.24,1190
789.26,1213
789.28,1237
789.3,1166
789.32,1096
789.34,1084
789.36,1096
789.38,1143
789.4,1354
789.42,1789
789.44,2177
789.46,2459
789.48,2659
789.5,2870
789.52,3105
789.54,3152
789.56,3070
789.58,2941
789.6,2800
789.62,2764
789.64,2764
789.66,2635
789.68,2506
789.7,2459
789.72,2494
789.74,2471
789.76,2388
789.78,2259
789.8,2142
789.82,2106
789.84,2142
789.86,2165
789.88,1954
789.9,1636
789.92,1554
789.94,1613
789.96,1625
789.98,1578
790,1578
790.02,1495
790.04,1366
790.06,1307
790.08,1249
790.1,1190
790.12,1249
790.14,1225
790.16,1143
790.18,1131
790.2,1119
790.22,1084
790.24,1096
790.26,1037
790.28,1119
790.3,1307
790.32,1613
790.34,1930
790.36,2224
790.38,2459
790.4,2729
790.42,3082
790.44,3270
790.46,3352
790.48,3305
790.5,3176
790.52,3070
790.54,2894
790.56,2670
790.58,2588
790.6,2506
790.62,2435
790.64,2412
790.66,2435
790.68,2506
790.7,2482
790.72,2365
790.74,2294
790.76,2212
790.78,2106
790.8,2024
790.82,1965
790.84,1918
790.86,1907
790.88,1789
790.9,1589
790.92,1425
790.94,1319
790.96,1354
790.98,1437
791,1542
791.02,1613
791.04,1660
791.06,1636
791.08,1554
791.1,1542
791.12,1589
791.14,1672
791.16,1824
791.18,2012
791.2,2294
791.22,2588
791.24,2788
791.26,2905
791.28,3023
791.3,3152
791.32,3223
791.34,3187
791.36,3129
791.38,3070
791.4,2999
791.42,2917
791.44,2753
791.46,2600
791.48,2565
791.5,2506
791.52,2482
791.54,2553
791.56,2518
791.58,2400
791.6,2388
791.62,2306
791.64,2189
791.66,2106
791.68,1918
791.7,1730
791.72,1542
791.74,1566
791.76,1589
791.78,1437
791.8,1296
791.82,1166
791.84,1084
791.86,1155
791.88,1213
791.9,1225
791.92,1307
791.94,1390
791.96,1484
791.98,1754
792,1989
792.02,2306
792.04,2717
792.06,3093
792.08,3281
792.1,3328
792.12,3281
792.14,3281
792.16,3340
792.18,3305
792.2,3199
792.22,3105
792.24,2999
792.26,2894
792.28,2823
792.3,2741
792.32,2647
792.34,2623
792.36,2612
792.38,2506
792.4,2400
792.42,2247
792.44,2177
792.46,2130
792.48,2095
792.5,2024
792.52,1801
792.54,1648
792.56,1660
792.58,1648
792.6,1531
792.62,1413
792.64,1366
792.66,1378
792.68,1272
792.7,1143
792.72,1072
792.74,943
792.76,884
792.78,873
792.8,908
792.82,978
792.84,1155
792.86,1448
792.88,1777
792.9,2177
792.92,2518
792.94,2729
792.96,2894
792.98,2976
793,3011
793.02,3023
793.04,2905
793.06,2776
793.08,2729
793.1,2764
793.12,2764
793.14,2682
793.16,2506
793.18,2447
793.2,2435
793.22,2294
793.24,2165
793.26,2059
793.28,2024
793.3,2024
793.32,2071
793.34,2059
793.36,1965
793.38,1871
793.4,1789
793.42,1636
793.44,1425
793.46,1249
793.48,1225
793.5,1249
793.52,1190
793.54,1119
793.56,990
793.58,943
793.6,943
793.62,931
793.64,920
793.66,873
793.68,920
793.7,978
793.72,1108
793.74,1378
793.76,1742
793.78,2153
793.8,2529
793.82,2753
793.84,2976
793.86,3199
793.88,3317
793.9,3364
793.92,3293
793.94,3046
793.96,2858
793.98,2741
794,2659
794.02,2670
794.04,2717
794.06,2764
794.08,2682
794.1,2482
794.12,2353
794.14,2294
794.16,2283
794.18,2294
794.2,2294
794.22,2330
794.24,2306
794.26,2165
794.28,2036
794.3,1989
794.32,1954
794.34,1824
794.36,1695
794.38,1554
794.4,1425
794.42,1307
794.44,1213
794.46,1119
794.48,1049
794.5,1025
794.52,1014
794.54,920
794.56,779
794.58,849
794.6,1061
794.62,1272
794.64,1460
794.66,1813
794.68,2259
794.7,2659
794.72,2999
794.74,3187
794.76,3211
794.78,3093
794.8,3023
794.82,2917
794.84,2729
794.86,2529
794.88,2482
794.9,2541
794.92,2506
794.94,2400
794.96,2341
794.98,2294
795,2271
795.02,2236
795.04,2236
795.06,2236
795.08,2212
795.1,2071
795.12,1954
795.14,1954
795.16,1848
795.18,1707
795.2,1519
795.22,1378
795.24,1260
795.26,1143
795.28,1061
795.3,1049
795.32,1072
795.34,1096
795.36,1096
795.38,1061
795.4,884
795.42,755
795.44,908
795.46,1213
795.48,1519
795.5,2001
795.52,2494
795.54,2835
795.56,3046
795.58,3199
795.6,3387
795.62,3481
795.64,3411
795.66,3211
795.68,3023
795.7,2929
795.72,2858
795.74,2717
795.76,2576
795.78,2459
795.8,2377
795.82,2318
795.84,2259
795.86,2165
795.88,2001
795.9,1965
795.92,1942
795.94,2024
795.96,2012
795.98,1836
796,1589
796.02,1519
796.04,1519
796.06,1460
796.08,1437
796.1,1472
796.12,1378
796.14,1284
796.16,1272
796.18,1237
796.2,1213
796.22,1202
796.24,1213
796.26,1390
796.28,1695
796.3,2048
796.32,2388
796.34,2776
796.36,3164
796.38,3399
796.4,3528
796.42,3563
796.44,3552
796.46,3516
796.48,3399
796.5,3187
796.52,2952
796.54,2717
796.56,2576
796.58,2494
796.6,2435
796.62,2330
796.64,2200
796.66,2059
796.68,1977
796.7,2001
796.72,1918
796.74,1789
796.76,1707
796.78,1625
796.8,1531
796.82,1425
796.84,1366
796.86,1237
796.88,1131
796.9,1131
796.92,1166
796.94,1049
796.96,861
796.98,790
797,849
797.02,873
797.04,790
797.06,767
797.08,849
797.1,1061
797.12,1319
797.14,1648
797.16,1954
797.18,2247
797.2,2623
797.22,2835
797.24,2964
797.26,2952
797.28,2882
797.3,2894
797.32,2858
797.34,2800
797.36,2741
797.38,2600
797.4,2412
797.42,2247
797.44,2189
797.46,2165
797.48,2130
797.5,2036
797.52,1989
797.54,1989
797.56,1954
797.58,1883
797.6,1742
797.62,1636
797.64,1495
797.66,1390
797.68,1366
797.7,1319
797.72,1131
797.74,931
797.76,802
797.78,826
797.8,908
797.82,920
797.84,849
797.86,814
797.88,790
797.9,755
797.92,755
797.94,767
797.96,732
797.98,732
798,849
798.02,1119
798.04,1495
798.06,1965
798.08,2330
798.1,2529
798.12,2635
798.14,2753
798.16,2870
798.18,2905
798.2,2800
798.22,2670
798.24,2553
798.26,2506
798.28,2482
798.3,2400
798.32,2353
798.34,2224
798.36,2036
798.38,1895
798.4,1954
798.42,2071
798.44,2095
798.46,1989
798.48,1883
798.5,1824
798.52,1766
798.54,1707
798.56,1672
798.58,1601
798.6,1437
798.62,1260
798.64,1155
798.66,1178
798.68,1202
798.7,1260
798.72,1296
798.74,1307
798.76,1296
798.78,1331
798.8,1296
798.82,1237
798.84,1319
798.86,1425
798.88,1460
798.9,1401
798.92,1354
798.94,1472
798.96,1672
798.98,1907
799,2189
799.02,2518
799.04,2729
799.06,2870
799.08,2905
799.1,2764
799.12,2623
799.14,2588
799.16,2600
799.18,2612
799.2,2447
799.22,2318
799.24,2224
799.26,2224
799.28,2341
799.3,2341
799.32,2306
799.34,2259
799.36,2271
799.38,2306
799.4,2306
799.42,2259
799.44,2153
799.46,2048
799.48,2024
799.5,2001
799.52,1918
799.54,1836
799.56,1730
799.58,1683
799.6,1636
799.62,1589
799.64,1554
799.66,1554
799.68,1495
799.7,1437
799.72,1437
799.74,1472
799.76,1531
799.78,1601
799.8,1742
799.82,1883
799.84,2001
799.86,2177
799.88,2506
799.9,2788
799.92,2952
799.94,3035
799.96,3199
799.98,3328
800,3234
800.02,3129
800.04,3046
800.06,2999
800.08,2999
800.1,2952
800.12,2847
800.14,2717
800.16,2682
800.18,2647
800.2,2565
800.22,2529
800.24,2482
800.26,2447
800.28,2424
800.3,2318
800.32,2283
800.34,2271
800.36,2330
800.38,2330
800.4,2294
800.42,2212
800.44,2071
800.46,1965
800.48,1954
800.5,1883
800.52,1883
800.54,1801
800.56,1672
800.58,1566
800.6,1566
800.62,1589
800.64,1648
800.66,1672
800.68,1695
800.7,1813
800.72,2105
800.74,2380
800.76,2551
800.78,2713
800.8,2836
800.82,2969
800.84,3026
800.86,3036
800.88,3045
800.9,3007
800.92,2922
800.94,2779
800.96,2646
800.98,2466
801,2399
801.02,2437
801.04,2485
801.06,2551
801.08,2523
801.1,2418
801.12,2371
801.14,2333
801.16,2257
801.18,2209
801.2,2257
801.22,2285
801.24,2171
801.26,2057
801.28,1953
801.3,1839
801.32,1763
801.34,1668
801.36,1554
801.38,1525
801.4,1544
801.42,1582
801.44,1639
801.46,1677
801.48,1715
801.5,1734
801.52,1696
801.54,1620
801.56,1630
801.58,1753
801.6,1962
801.62,2247
801.64,2504
801.66,2770
801.68,2950
801.7,3007
801.72,3007
801.74,2998
801.76,2931
801.78,2922
801.8,2865
801.82,2760
801.84,2646
801.86,2561
801.88,2466
801.9,2437
801.92,2371
801.94,2314
801.96,2352
801.98,2409
802,2409
802.02,2399
802.04,2380
802.06,2285
802.08,2209
802.1,2162
802.12,2114
802.14,2067
802.16,1915
802.18,1687
802.2,1601
802.22,1677
802.24,1715
802.26,1734
802.28,1725
802.3,1696
802.32,1696
802.34,1687
802.36,1687
802.38,1630
802.4,1592
802.42,1573
802.44,1554
802.46,1630
802.48,1867
802.5,2181
802.52,2485
802.54,2684
802.56,2808
802.58,2903
802.6,2941
802.62,2998
802.64,2969
802.66,2827
802.68,2703
802.7,2675
802.72,2637
802.74,2542
802.76,2447
802.78,2494
802.8,2561
802.82,2561
802.84,2523
802.86,2428
802.88,2399
802.9,2361
802.92,2276
802.94,2200
802.96,2124
802.98,2038
803,1905
803.02,1848
803.04,1820
803.06,1801
803.08,1782
803.1,1715
803.12,1630
803.14,1592
803.16,1573
803.18,1525
803.2,1516
803.22,1525
803.24,1430
803.26,1392
803.28,1487
803.3,1620
803.32,1744
803.34,1953
803.36,2143
803.38,2352
803.4,2542
803.42,2637
803.44,2665
803.46,2713
803.48,2760
803.5,2779
803.52,2798
803.54,2770
803.56,2741
803.58,2722
803.6,2646
803.62,2570
803.64,2523
803.66,2428
803.68,2352
803.7,2333
803.72,2390
803.74,2475
803.76,2466
803.78,2371
803.8,2314
803.82,2314
803.84,2304
803.86,2257
803.88,2152
803.9,2067
803.92,2010
803.94,1934
803.96,1877
803.98,1791
804,1734
804.02,1620
804.04,1506
804.06,1544
804.08,1639
804.1,1696
804.12,1706
804.14,1734
804.16,1772
804.18,1943
804.2,2209
804.22,2504
804.24,2779
804.26,2941
804.28,2988
804.3,2998
804.32,3074
804.34,3207
804.36,3264
804.38,3245
804.4,3178
804.42,3074
804.44,2903
804.46,2798
804.48,2760
804.5,2684
804.52,2589
804.54,2475
804.56,2380
804.58,2466
804.6,2561
804.62,2561
804.64,2447
804.66,2342
804.68,2257
804.7,2171
804.72,2095
804.74,2133
804.76,2124
804.78,2048
804.8,1934
804.82,1829
804.84,1782
804.86,1744
804.88,1649
804.9,1468
804.92,1383
804.94,1440
804.96,1535
804.98,1487
805,1497
805.02,1687
805.04,1972
805.06,2181
805.08,2371
805.1,2589
805.12,2779
805.14,2941
805.16,3007
805.18,3074
805.2,3064
805.22,2979
805.24,2893
805.26,2789
805.28,2656
805.3,2580
805.32,2513
805.34,2475
805.36,2485
805.38,2513
805.4,2494
805.42,2380
805.44,2209
805.46,2076
805.48,2000
805.5,2010
805.52,2010
805.54,1915
805.56,1801
805.58,1744
805.6,1696
805.62,1620
805.64,1535
805.66,1506
805.68,1497
805.7,1459
805.72,1411
805.74,1392
805.76,1297
805.78,1231
805.8,1183
805.82,1164
805.84,1212
805.86,1288
805.88,1430
805.9,1630
805.92,1791
805.94,1953
805.96,2133
805.98,2295
806,2437
806.02,2694
806.04,2808
806.06,2779
806.08,2665
806.1,2570
806.12,2494
806.14,2418
806.16,2352
806.18,2285
806.2,2228
806.22,2162
806.24,2057
806.26,2038
806.28,2095
806.3,2143
806.32,2095
806.34,1962
806.36,1867
806.38,1810
806.4,1772
806.42,1791
806.44,1801
806.46,1725
806.48,1639
806.5,1592
806.52,1497
806.54,1392
806.56,1364
806.58,1335
806.6,1278
806.62,1240
806.64,1164
806.66,1107
806.68,1117
806.7,1145
806.72,1231
806.74,1373
806.76,1563
806.78,1725
806.8,1981
806.82,2257
806.84,2399
806.86,2466
806.88,2475
806.9,2494
806.92,2513
806.94,2532
806.96,2589
806.98,2618
807,2561
807.02,2456
807.04,2304
807.06,2190
807.08,2152
807.1,2143
807.12,2086
807.14,2067
807.16,2067
807.18,2133
807.2,2219
807.22,2181
807.24,2076
807.26,1905
807.28,1791
807.3,1782
807.32,1753
807.34,1706
807.36,1630
807.38,1592
807.4,1573
807.42,1554
807.44,1506
807.46,1440
807.48,1373
807.5,1297
807.52,1221
807.54,1231
807.56,1278
807.58,1392
807.6,1658
807.62,1962
807.64,2162
807.66,2266
807.68,2361
807.7,2551
807.72,2732
807.74,2846
807.76,2903
807.78,2855
807.8,2722
807.82,2656
807.84,2694
807.86,2675
807.88,2599
807.9,2589
807.92,2589
807.94,2532
807.96,2409
807.98,2295
808,2266
808.02,2257
808.04,2143
808.06,2038
808.08,2048
808.1,2038
808.12,1962
808.14,1877
808.16,1829
808.18,1801
808.2,1744
808.22,1677
808.24,1668
808.26,1573
808.28,1487
808.3,1506
808.32,1487
808.34,1383
808.36,1307
808.38,1297
808.4,1345
808.42,1335
808.44,1506
808.46,1820
808.48,2114
808.5,2437
808.52,2627
808.54,2703
808.56,2827
808.58,2941
808.6,2969
808.62,2998
808.64,3007
808.66,2998
808.68,2960
808.7,2884
808.72,2751
808.74,2684
808.76,2646
808.78,2646
808.8,2599
808.82,2466
808.84,2428
808.86,2494
808.88,2513
808.9,2409
808.92,2352
808.94,2295
808.96,2266
808.98,2171
809,2029
809.02,1915
809.04,1791
809.06,1725
809.08,1649
809.1,1592
809.12,1554
809.14,1554
809.16,1516
809.18,1478
809.2,1468
809.22,1449
809.24,1516
809.26,1554
809.28,1563
809.3,1582
809.32,1639
809.34,1744
809.36,1924
809.38,2247
809.4,2561
809.42,2770
809.44,2922
809.46,2988
809.48,3007
809.5,2998
809.52,2922
809.54,2865
809.56,2836
809.58,2760
809.6,2675
809.62,2589
809.64,2513
809.66,2466
809.68,2380
809.7,2314
809.72,2304
809.74,2323
809.76,2314
809.78,2371
809.8,2390
809.82,2352
809.84,2200
809.86,2086
809.88,1962
809.9,1858
809.92,1782
809.94,1753
809.96,1687
809.98,1563
810,1487
810.02,1487
810.04,1430
810.06,1335
810.08,1269
810.1,1231
810.12,1259
810.14,1345
810.16,1402
810.18,1354
810.2,1411
810.22,1554
810.24,1725
810.26,1924
810.28,2114
810.3,2380
810.32,2523
810.34,2570
810.36,2618
810.38,2684
810.4,2770
810.42,2656
810.44,2523
810.46,2428
810.48,2390
810.5,2380
810.52,2333
810.54,2247
810.56,2228
810.58,2276
810.6,2276
810.62,2238
810.64,2200
810.66,2095
810.68,1981
810.7,1915
810.72,1943
810.74,1905
810.76,1829
810.78,1810
810.8,1820
810.82,1772
810.84,1668
810.86,1525
810.88,1459
810.9,1468
810.92,1487
810.94,1440
810.96,1364
810.98,1278
811,1240
811.02,1269
811.04,1345
811.06,1430
811.08,1620
811.1,1896
811.12,2200
811.14,2428
811.16,2627
811.18,2741
811.2,2846
811.22,2960
811.24,3055
811.26,3045
811.28,2922
811.3,2751
811.32,2637
811.34,2599
811.36,2589
811.38,2665
811.4,2694
811.42,2637
811.44,2599
811.46,2532
811.48,2418
811.5,2323
811.52,2124
811.54,1905
811.56,1867
811.58,1915
811.6,1943
811.62,1896
811.64,1820
811.66,1687
811.68,1639
811.7,1620
811.72,1592
811.74,1563
811.76,1525
811.78,1497
811.8,1449
811.82,1411
811.84,1402
811.86,1383
811.88,1421
811.9,1611
811.92,1848
811.94,2038
811.96,2228
811.98,2475
812,2779
812.02,2998
812.04,3131
812.06,3178
812.08,3121
812.1,2979
812.12,2846
812.14,2827
812.16,2770
812.18,2646
812.2,2523
812.22,2390
812.24,2304
812.26,2266
812.28,2171
812.3,2181
812.32,2162
812.34,2114
812.36,2038
812.38,1877
812.4,1734
812.42,1611
812.44,1544
812.46,1506
812.48,1468
812.5,1449
812.52,1487
812.54,1478
812.56,1421
812.58,1307
812.6,1174
812.62,1079
812.64,1041
812.66,1107
812.68,1174
812.7,1202
812.72,1250
812.74,1459
812.76,1791
812.78,2095
812.8,2352
812.82,2608
812.84,2817
812.86,2941
812.88,2998
812.9,2988
812.92,2912
812.94,2846
812.96,2846
812.98,2874
813,2789
813.02,2665
813.04,2551
813.06,2532
813.08,2589
813.1,2608
813.12,2561
813.14,2504
813.16,2466
813.18,2475
813.2,2409
813.22,2266
813.24,2105
813.26,1962
813.28,1886
813.3,1858
813.32,1782
813.34,1649
813.36,1544
813.38,1506
813.4,1497
813.42,1449
813.44,1373
813.46,1345
813.48,1297
813.5,1221
813.52,1041
813.54,1031
813.56,1240
813.58,1582
813.6,1820
813.62,2048
813.64,2257
813.66,2475
813.68,2646
813.7,2675
813.72,2694
813.74,2703
813.76,2684
813.78,2675
813.8,2637
813.82,2475
813.84,2361
813.86,2342
813.88,2352
813.9,2352
813.92,2314
813.94,2200
813.96,2076
813.98,1972
814,1886
814.02,1886
814.04,1924
814.06,1896
814.08,1820
814.1,1753
814.12,1687
814.14,1563
814.16,1411
814.18,1269
814.2,1212
814.22,1174
814.24,1174
814.26,1164
814.28,1107
814.3,1050
814.32,1098
814.34,1069
814.36,1098
814.38,1193
814.4,1269
814.42,1402
814.44,1563
814.46,1725
814.48,1896
814.5,2076
814.52,2342
814.54,2504
814.56,2532
814.58,2523
814.6,2504
814.62,2447
814.64,2371
814.66,2314
814.68,2152
814.7,2019
814.72,1924
814.74,1896
814.76,1886
814.78,1877
814.8,1905
814.82,1981
814.84,1953
814.86,1886
814.88,1839
814.9,1782
814.92,1772
814.94,1696
814.96,1630
814.98,1468
815,1392
815.02,1316
815.04,1250
815.06,1250
815.08,1221
815.1,1145
815.12,1079
815.14,1079
815.16,1126
815.18,1164
815.2,1174
815.22,1221
815.24,1335
815.26,1535
815.28,1763
815.3,1962
815.32,2124
815.34,2266
815.36,2447
815.38,2551
815.4,2608
815.42,2646
815.44,2713
815.46,2703
815.48,2608
815.5,2475
815.52,2409
815.54,2352
815.56,2276
815.58,2171
815.6,2114
815.62,2219
815.64,2285
815.66,2276
815.68,2285
815.7,2238
815.72,2143
815.74,2029
815.76,1924
815.78,1886
815.8,1791
815.82,1725
815.84,1687
815.86,1649
815.88,1554
815.9,1468
815.92,1411
815.94,1373
815.96,1345
815.98,1383
816,1373
816.02,1392
816.04,1459
816.06,1668
816.08,1962
816.1,2238
816.12,2475
816.14,2684
816.16,2827
816.18,2855
816.2,2846
816.22,2846
816.24,2865
816.26,2808
816.28,2694
816.3,2627
816.32,2618
816.34,2599
816.36,2570
816.38,2580
816.4,2637
816.42,2656
816.44,2627
816.46,2570
816.48,2532
816.5,2418
816.52,2219
816.54,2019
816.56,1934
816.58,1905
816.6,1896
816.62,1858
816.64,1810
816.66,1753
816.68,1706
816.7,1639
816.72,1582
816.74,1525
816.76,1497
816.78,1497
816.8,1459
816.82,1440
816.84,1449
816.86,1544
816.88,1639
816.9,1696
816.92,1782
816.94,1915
816.96,2105
816.98,2295
817,2580
817.02,2836
817.04,2931
817.06,2941
817.08,2941
817.1,2988
817.12,3045
817.14,2969
817.16,2855
817.18,2779
817.2,2713
817.22,2675
817.24,2665
817.26,2656
817.28,2618
817.3,2456
817.32,2304
817.34,2219
817.36,2152
817.38,2114
817.4,2095
817.42,2019
817.44,1953
817.46,2019
817.48,2162
817.5,2152
817.52,2019
817.54,1924
817.56,1877
817.58,1858
817.6,1791
817.62,1734
817.64,1734
817.66,1772
817.68,1763
817.7,1677
817.72,1592
817.74,1506
817.76,1421
817.78,1478
817.8,1611
817.82,1753
817.84,1924
817.86,2143
817.88,2399
817.9,2599
817.92,2703
817.94,2855
817.96,3017
817.98,3083
818,3017
818.02,2998
818.04,2941
818.06,2903
818.08,2846
818.1,2741
818.12,2599
818.14,2466
818.16,2456
818.18,2475
818.2,2513
818.22,2570
818.24,2599
818.26,2570
818.28,2494
818.3,2371
818.32,2200
818.34,2029
818.36,1972
818.38,1962
818.4,1934
818.42,1896
818.44,1801
818.46,1687
818.48,1630
818.5,1601
818.52,1592
818.54,1592
818.56,1554
818.58,1525
818.6,1487
818.62,1449
818.64,1402
818.66,1411
818.68,1430
818.7,1573
818.72,1801
818.74,2038
818.76,2399
818.78,2675
818.8,2960
818.82,3159
818.84,3188
818.86,3150
818.88,3150
818.9,3169
818.92,3140
818.94,3083
818.96,2884
818.98,2722
819,2570
819.02,2504
819.04,2561
819.06,2618
819.08,2665
819.1,2627
819.12,2513
819.14,2456
819.16,2352
819.18,2266
819.2,2238
819.22,2200
819.24,2124
819.26,2038
819.28,1877
819.3,1744
819.32,1687
819.34,1658
819.36,1601
819.38,1563
819.4,1554
819.42,1535
819.44,1468
819.46,1440
819.48,1468
819.5,1497
819.52,1525
819.54,1478
819.56,1478
819.58,1544
819.6,1620
819.62,1801
819.64,2029
819.66,2257
819.68,2485
819.7,2722
819.72,3064
819.74,3245
819.76,3245
819.78,3235
819.8,3235
819.82,3150
819.84,3007
819.86,2893
819.88,2836
819.9,2779
819.92,2703
819.94,2608
819.96,2561
819.98,2589
820,2589
820.02,2580
820.04,2551
820.06,2447
820.08,2390
820.1,2314
820.12,2228
820.14,2095
820.16,2038
820.18,2086
820.2,2048
820.22,1981
820.24,1934
820.26,1848
820.28,1687
820.3,1525
820.32,1345
820.34,1250
820.36,1240
820.38,1250
820.4,1174
820.42,1269
820.44,1525
820.46,1839
820.48,2095
820.5,2418
820.52,2722
820.54,2931
820.56,3055
820.58,3169
820.6,3226
820.62,3159
820.64,3083
820.66,3074
820.68,3083
820.7,3045
820.72,2969
820.74,2855
820.76,2741
820.78,2646
820.8,2513
820.82,2466
820.84,2551
820.86,2561
820.88,2523
820.9,2409
820.92,2323
820.94,2228
820.96,2048
820.98,1848
821,1763
821.02,1772
821.04,1772
821.06,1715
821.08,1677
821.1,1573
821.12,1487
821.14,1421
821.16,1354
821.18,1316
821.2,1297
821.22,1326
821.24,1335
821.26,1316
821.28,1354
821.3,1421
821.32,1582
821.34,1829
821.36,2133
821.38,2399
821.4,2675
821.42,2969
821.44,3188
821.46,3321
821.48,3406
821.5,3406
821.52,3359
821.54,3207
821.56,3045
821.58,2941
821.6,2893
821.62,2789
821.64,2665
821.66,2532
821.68,2485
821.7,2437
821.72,2380
821.74,2276
821.76,2171
821.78,2162
821.8,2190
821.82,2190
821.84,2086
821.86,1981
821.88,1867
821.9,1734
821.92,1601
821.94,1516
821.96,1468
821.98,1402
822,1212
822.02,1041
822.04,1088
822.06,1136
822.08,1098
822.1,1098
822.12,1126
822.14,1060
822.16,1079
822.18,1231
822.2,1430
822.22,1725
822.24,2105
822.26,2475
822.28,2722
822.3,2922
822.32,3083
822.34,3207
822.36,3216
822.38,3064
822.4,2969
822.42,2903
822.44,2922
822.46,2884
822.48,2779
822.5,2646
822.52,2532
822.54,2418
822.56,2247
822.58,2124
822.6,2162
822.62,2257
822.64,2276
822.66,2247
822.68,2181
822.7,2076
822.72,2029
822.74,2019
822.76,1934
822.78,1772
822.8,1668
822.82,1620
822.84,1468
822.86,1326
822.88,1259
822.9,1221
822.92,1145
822.94,1136
822.96,1126
822.98,1126
823,1174
823.02,1212
823.04,1335
823.06,1620
823.08,1972
823.1,2304
823.12,2627
823.14,2950
823.16,3169
823.18,3292
823.2,3359
823.22,3416
823.24,3435
823.26,3473
823.28,3425
823.3,3302
823.32,3074
823.34,2950
823.36,2988
823.38,3045
823.4,3064
823.42,3045
823.44,2988
823.46,2893
823.48,2770
823.5,2694
823.52,2608
823.54,2390
823.56,2200
823.58,2181
823.6,2181
823.62,2076
823.64,1877
823.66,1687
823.68,1544
823.7,1421
823.72,1316
823.74,1155
823.76,1003
823.78,917
823.8,794
823.82,803
823.84,927
823.86,1098
823.88,1259
823.9,1478
823.92,1791
823.94,2124
823.96,2295
823.98,2390
824,2466
824.02,2494
824.04,2437
824.06,2304
824.08,2114
824.1,1943
824.12,1829
824.14,1744
824.16,1639
824.18,1525
824.2,1392
824.22,1430
824.24,1506
824.26,1535
824.28,1468
824.3,1392
824.32,1316
824.34,1269
824.36,1212
824.38,1088
824.4,1003
824.42,1012
824.44,1041
824.46,1003
824.48,1050
824.5,1117
824.52,1145
824.54,1107
824.56,1003
824.58,898
824.6,889
824.62,1003
824.64,1250
824.66,1535
824.68,1877
824.7,2285
824.72,2580
824.74,2798
824.76,3055
824.78,3235
824.8,3254
824.82,3207
824.84,3121
824.86,3017
824.88,2893
824.9,2798
824.92,2770
824.94,2741
824.96,2675
824.98,2589
825,2485
825.02,2447
825.04,2409
825.06,2304
825.08,2257
825.1,2200
825.12,2228
825.14,2171
825.16,2010
825.18,1915
825.2,1839
825.22,1753
825.24,1668
825.26,1573
825.28,1459
825.3,1335
825.32,1231
825.34,1088
825.36,1088
825.38,1069
825.4,1088
825.42,1212
825.44,1307
825.46,1430
825.48,1563
825.5,1791
825.52,2124
825.54,2466
825.56,2779
825.58,3045
825.6,3235
825.62,3311
825.64,3349
825.66,3302
825.68,3178
825.7,3074
825.72,2912
825.74,2675
825.76,2551
825.78,2551
825.8,2523
825.82,2437
825.84,2390
825.86,2380
825.88,2352
825.9,2295
825.92,2266
825.94,2219
825.96,2143
825.98,2076
826,1962
826.02,1877
826.04,1782
826.06,1668
826.08,1563
826.1,1468
826.12,1421
826.14,1364
826.16,1297
826.18,1145
826.2,1022
826.22,974
826.24,955
826.26,927
826.28,955
826.3,1079
826.32,1288
826.34,1497
826.36,1791
826.38,2133
826.4,2380
826.42,2646
826.44,2950
826.46,3112
826.48,3159
826.5,3226
826.52,3235
826.54,3102
826.56,2893
826.58,2675
826.6,2542
826.62,2418
826.64,2342
826.66,2333
826.68,2342
826.7,2333
826.72,2285
826.74,2238
826.76,2200
826.78,2152
826.8,2067
826.82,1953
826.84,1801
826.86,1639
826.88,1535
826.9,1459
826.92,1373
826.94,1288
826.96,1145
826.98,1069
827,1088
827.02,1050
827.04,984
827.06,1012
827.08,1060
827.1,1088
827.12,1098
827.14,1041
827.16,1031
827.18,1126
827.2,1354
827.22,1677
827.24,2019
827.26,2361
827.28,2703
827.3,2912
827.32,3036
827.34,3140
827.36,3207
827.38,3169
827.4,3102
827.42,2998
827.44,2874
827.46,2770
827.48,2703
827.5,2599
827.52,2485
827.54,2428
827.56,2399
827.58,2371
827.6,2333
827.62,2285
827.64,2228
827.66,2114
827.68,1981
827.7,1858
827.72,1725
827.74,1630
827.76,1525
827.78,1478
827.8,1459
827.82,1392
827.84,1278
827.86,1259
827.88,1269
827.9,1231
827.92,1231
827.94,1231
827.96,1202
827.98,1107
828,1107
828.02,1212
828.04,1326
828.06,1478
828.08,1734
828.1,2029
828.12,2371
828.14,2599
828.16,2732
828.18,2836
828.2,2969
828.22,3074
828.24,3083
828.26,3017
828.28,2922
828.3,2751
828.32,2599
828.34,2475
828.36,2437
828.38,2428
828.4,2428
828.42,2437
828.44,2409
828.46,2361
828.48,2333
828.5,2314
828.52,2276
828.54,2200
828.56,2057
828.58,1915
828.6,1820
828.62,1725
828.64,1658
828.66,1573
828.68,1487
828.7,1421
828.72,1373
828.74,1326
828.76,1288
828.78,1240
828.8,1212
828.82,1231
828.84,1335
828.86,1592
828.88,1953
828.9,2447
828.92,2789
828.94,3026
828.96,3112
828.98,3226
829,3292
829.02,3264
829.04,3254
829.06,3188
829.08,3055
829.1,2893
829.12,2675
829.14,2494
829.16,2485
829.18,2437
829.2,2352
829.22,2342
829.24,2295
829.26,2276
829.28,2323
829.3,2295
829.32,2209
829.34,2038
829.36,1867
829.38,1801
829.4,1839
829.42,1877
829.44,1839
829.46,1734
829.48,1639
829.5,1554
829.52,1516
829.54,1487
829.56,1392
829.58,1288
829.6,1259
829.62,1345
829.64,1582
829.66,1896
829.68,2285
829.7,2703
829.72,3055
829.74,3302
829.76,3444
829.78,3520
829.8,3549
829.82,3511
829.84,3416
829.86,3283
829.88,3112
829.9,2893
829.92,2741
829.94,2637
829.96,2542
829.98,2475
830,2390
830.02,2342
830.04,2333
830.06,2380
830.08,2361
830.1,2276
830.12,2095
830.14,1943
830.16,1848
830.18,1839
830.2,1687
830.22,1449
830.24,1307
830.26,1126
830.28,1003
830.3,917
830.32,936
830.34,1012
830.36,1003
830.38,927
830.4,898
830.42,927
830.44,1088
830.46,1402
830.48,1715
830.5,1991
830.52,2323
830.54,2627
830.56,2893
830.58,3036
830.6,3093
830.62,3083
830.64,3055
830.66,2941
830.68,2808
830.7,2618
830.72,2513
830.74,2466
830.76,2390
830.78,2257
830.8,2200
830.82,2238
830.84,2200
830.86,2038
830.88,1934
830.9,1915
830.92,1858
830.94,1791
830.96,1668
830.98,1516
831,1497
831.02,1440
831.04,1354
831.06,1278
831.08,1164
831.1,1060
831.12,1022
831.14,1031
831.16,1069
831.18,1088
831.2,984
831.22,832
831.24,832
831.26,946
831.28,1107
831.3,1288
831.32,1544
831.34,1848
831.36,2171
831.38,2494
831.4,2713
831.42,2789
831.44,2760
831.46,2836
831.48,2865
831.5,2760
831.52,2627
831.54,2580
831.56,2551
831.58,2475
831.6,2371
831.62,2295
831.64,2276
831.66,2285
831.68,2228
831.7,2209
831.72,2181
831.74,2124
831.76,1991
831.78,1848
831.8,1782
831.82,1744
831.84,1630
831.86,1516
831.88,1487
831.9,1459
831.92,1430
831.94,1278
831.96,1136
831.98,1107
832,1060
832.02,955
832.04,851
832.06,784
832.08,784
832.1,689
832.12,604
832.14,604
832.16,803
832.18,1174
832.2,1506
832.22,1772
832.24,1915
832.26,1886
832.28,1668
832.3,1440
832.32,1240
832.34,1050
832.36,889
832.38,708
832.4,509
832.42,376
832.44,243
832.46,5
832.48,0
832.5,0
832.52,0
832.54,0
832.56,0
832.58,0
832.6,0
832.62,0
832.64,0
832.66,0
832.68,0
832.7,0
832.72,0
832.74,0
832.76,0
832.78,0
832.8,110
832.82,338
832.84,461
832.86,547
832.88,661
832.9,803
832.92,908
832.94,993
832.96,1155
832.98,1278
833,1440
833.02,1696
833.04,1962
833.06,2200
833.08,2456
833.1,2656
833.12,2855
833.14,2998
833.16,3036
833.18,3036
833.2,3055
833.22,3083
833.24,3083
833.26,3102
833.28,3045
833.3,2922
833.32,2846
833.34,2789
833.36,2836
833.38,2827
833.4,2789
833.42,2751
833.44,2703
833.46,2722
833.48,2665
833.5,2580
833.52,2523
833.54,2418
833.56,2314
833.58,2257
833.6,2171
833.62,2143
833.64,2181
833.66,2152
833.68,2086
833.7,2010
833.72,1924
833.74,1858
833.76,1943
833.78,2057
833.8,2114
833.82,2124
833.84,2067
833.86,2048
833.88,1943
833.9,1763
833.92,1478
833.94,1240
833.96,1107
833.98,936
834,737
834.02,490
834.04,309
834.06,262
834.08,271
834.1,243
834.12,195
834.14,233
834.16,309
834.18,347
834.2,385
834.22,471
834.24,670
834.26,889
834.28,1098
834.3,1221
834.32,1307
834.34,1373
834.36,1383
834.38,1307
834.4,1240
834.42,1174
834.44,1250
834.46,1364
834.48,1354
834.5,1326
834.52,1269
834.54,1278
834.56,1335
834.58,1373
834.6,1497
834.62,1687
834.64,1839
834.66,2029
834.68,2190
834.7,2385
834.72,2633
834.74,2865
834.76,3075
834.78,3255
834.8,3398
834.82,3480
834.84,3563
834.86,3615
834.88,3555
834.9,3458
834.92,3383
834.94,3240
834.96,3128
834.98,3045
835,3000
835.02,2940
835.04,2873
835.06,2843
835.08,2843
835.1,2843
835.12,2768
835.14,2655
835.16,2595
835.18,2528
835.2,2475
835.22,2370
835.24,2220
835.26,2138
835.28,2123
835.3,2078
835.32,1928
835.34,1785
835.36,1710
835.38,1718
835.4,1733
835.42,1695
835.44,1643
835.46,1680
835.48,1763
835.5,1943
835.52,2100
835.54,2280
835.56,2453
835.58,2595
835.6,2663
835.62,2685
835.64,2708
835.66,2738
835.68,2805
835.7,2843
835.72,2813
835.74,2730
835.76,2618
835.78,2498
835.8,2378
835.82,2340
835.84,2363
835.86,2400
835.88,2423
835.9,2438
835.92,2445
835.94,2385
835.96,2265
835.98,2220
836,2198
836.02,2175
836.04,2123
836.06,2048
836.08,1965
836.1,1868
836.12,1830
836.14,1800
836.16,1748
836.18,1710
836.2,1658
836.22,1635
836.24,1643
836.26,1643
836.28,1658
836.3,1733
836.32,1868
836.34,2048
836.36,2295
836.38,2573
836.4,2790
836.42,2918
836.44,2955
836.46,2955
836.48,2955
836.5,2948
836.52,2925
836.54,2865
836.56,2775
836.58,2685
836.6,2588
836.62,2550
836.64,2618
836.66,2708
836.68,2715
836.7,2723
836.72,2693
836.74,2640
836.76,2580
836.78,2498
836.8,2460
836.82,2415
836.84,2385
836.86,2340
836.88,2235
836.9,2078
836.92,1928
836.94,1838
836.96,1815
836.98,1830
837,1823
837.02,1823
837.04,1853
837.06,1860
837.08,1793
837.1,1793
837.12,1838
837.14,1853
837.16,1905
837.18,2025
837.2,2175
837.22,2295
837.24,2378
837.26,2430
837.28,2415
837.3,2438
837.32,2385
837.34,2288
837.36,2213
837.38,2123
837.4,2078
837.42,2100
837.44,2190
837.46,2220
837.48,2205
837.5,2205
837.52,2175
837.54,2183
837.56,2273
837.58,2393
837.6,2400
837.62,2415
837.64,2415
837.66,2355
837.68,2303
837.7,2258
837.72,2160
837.74,2033
837.76,1913
837.78,1875
837.8,1815
837.82,1823
837.84,1845
837.86,1778
837.88,1770
837.9,1853
837.92,1920
837.94,1928
837.96,1973
837.98,2070
838,2175
838.02,2228
838.04,2318
838.06,2483
838.08,2670
838.1,2828
838.12,2888
838.14,2873
838.16,2835
838.18,2753
838.2,2723
838.22,2730
838.24,2670
838.26,2618
838.28,2565
838.3,2528
838.32,2490
838.34,2535
838.36,2580
838.38,2558
838.4,2498
838.42,2423
838.44,2370
838.46,2310
838.48,2250
838.5,2235
838.52,2198
838.54,2130
838.56,2070
838.58,2063
838.6,2063
838.62,2025
838.64,2010
838.66,1973
838.68,1890
838.7,1890
838.72,1883
838.74,1860
838.76,1808
838.78,1793
838.8,1808
838.82,1890
838.84,2003
838.86,2198
838.88,2423
838.9,2633
838.92,2850
838.94,2978
838.96,3030
838.98,3038
839,2955
839.02,2828
839.04,2760
839.06,2730
839.08,2670
839.1,2640
839.12,2618
839.14,2543
839.16,2543
839.18,2543
839.2,2505
839.22,2468
839.24,2408
839.26,2385
839.28,2355
839.3,2303
839.32,2310
839.34,2265
839.36,2220
839.38,2160
839.4,2055
839.42,2003
839.44,2003
839.46,1995
839.48,2033
839.5,1973
839.52,1838
839.54,1718
839.56,1650
839.58,1673
839.6,1718
839.62,1778
839.64,1770
839.66,1838
839.68,2100
839.7,2363
839.72,2543
839.74,2625
839.76,2678
839.78,2775
839.8,2790
839.82,2768
839.84,2753
839.86,2708
839.88,2655
839.9,2670
839.92,2655
839.94,2618
839.96,2603
839.98,2573
840,2528
840.02,2490
840.04,2468
840.06,2445
840.08,2460
840.1,2520
840.12,2543
840.14,2513
840.16,2430
840.18,2340
840.2,2250
840.22,2168
840.24,2130
840.26,2078
840.28,1995
840.3,1965
840.32,1973
840.34,1935
840.36,1860
840.38,1770
840.4,1695
840.42,1665
840.44,1628
840.46,1628
840.48,1763
840.5,1935
840.52,2120
840.54,2258
840.56,2360
840.58,2426
840.6,2492
840.62,2516
840.64,2528
840.66,2522
840.68,2528
840.7,2588
840.72,2588
840.74,2528
840.76,2486
840.78,2426
840.8,2420
840.82,2474
840.84,2492
840.86,2468
840.88,2402
840.9,2348
840.92,2336
840.94,2318
840.96,2276
840.98,2252
841,2246
841.02,2156
841.04,2036
841.06,1964
841.08,1976
841.1,2012
841.12,1988
841.14,1940
841.16,1886
841.18,1850
841.2,1850
841.22,1832
841.24,1808
841.26,1850
841.28,1934
841.3,2030
841.32,2144
841.34,2318
841.36,2468
841.38,2558
841.4,2630
841.42,2660
841.44,2660
841.46,2654
841.48,2642
841.5,2546
841.52,2456
841.54,2390
841.56,2372
841.58,2378
841.6,2330
841.62,2312
841.64,2270
841.66,2222
841.68,2246
841.7,2276
841.72,2264
841.74,2186
841.76,2138
841.78,2120
841.8,2090
841.82,2054
841.84,2012
841.86,1958
841.88,1874
841.9,1766
841.92,1658
841.94,1598
841.96,1622
841.98,1628
842,1580
842.02,1616
842.04,1718
842.06,1802
842.08,1928
842.1,2084
842.12,2216
842.14,2324
842.16,2414
842.18,2450
842.2,2426
842.22,2378
842.24,2318
842.26,2276
842.28,2264
842.3,2264
842.32,2252
842.34,2240
842.36,2228
842.38,2222
842.4,2198
842.42,2204
842.44,2216
842.46,2186
842.48,2126
842.5,2072
842.52,2030
842.54,2036
842.56,2006
842.58,1964
842.6,1952
842.62,1940
842.64,1964
842.66,1982
842.68,1898
842.7,1814
842.72,1802
842.74,1772
842.76,1724
842.78,1730
842.8,1814
842.82,1940
842.84,2060
842.86,2180
842.88,2318
842.9,2426
842.92,2474
842.94,2468
842.96,2492
842.98,2534
843,2516
843.02,2462
843.04,2420
843.06,2390
843.08,2342
843.1,2288
843.12,2228
843.14,2156
843.16,2120
843.18,2102
843.2,2078
843.22,2096
843.24,2108
843.26,2102
843.28,2066
843.3,2036
843.32,2006
843.34,2000
843.36,2012
843.38,2030
843.4,2024
843.42,1982
843.44,1922
843.46,1904
843.48,1850
843.5,1826
843.52,1850
843.54,1820
843.56,1790
843.58,1778
843.6,1790
843.62,1880
843.64,2000
843.66,2120
843.68,2246
843.7,2348
843.72,2402
843.74,2384
843.76,2348
843.78,2354
843.8,2414
843.82,2480
843.84,2474
843.86,2456
843.88,2420
843.9,2348
843.92,2288
843.94,2258
843.96,2228
843.98,2126
844,2054
844.02,2090
844.04,2102
844.06,2084
844.08,2042
844.1,2018
844.12,1976
844.14,1970
844.16,2012
844.18,2048
844.2,2030
844.22,1958
844.24,1928
844.26,1898
844.28,1874
844.3,1892
844.32,1874
844.34,1838
844.36,1790
844.38,1760
844.4,1736
844.42,1778
844.44,1916
844.46,2132
844.48,2330
844.5,2402
844.52,2450
844.54,2504
844.56,2546
844.58,2528
844.6,2492
844.62,2456
844.64,2378
844.66,2396
844.68,2438
844.7,2408
844.72,2318
844.74,2252
844.76,2216
844.78,2216
844.8,2222
844.82,2204
844.84,2192
844.86,2168
844.88,2156
844.9,2126
844.92,2036
844.94,1934
844.96,1886
844.98,1874
845,1820
845.02,1796
845.04,1820
845.06,1844
845.08,1838
845.1,1754
845.12,1676
845.14,1658
845.16,1658
845.18,1694
845.2,1790
845.22,1886
845.24,2018
845.26,2120
845.28,2180
845.3,2258
845.32,2312
845.34,2306
845.36,2252
845.38,2192
845.4,2132
845.42,2126
845.44,2192
845.46,2228
845.48,2192
845.5,2096
845.52,2060
845.54,2096
845.56,2132
845.58,2120
845.6,2084
845.62,2036
845.64,1982
845.66,1952
845.68,1934
845.7,1946
845.72,1910
845.74,1868
845.76,1850
845.78,1892
845.8,1940
845.82,1916
845.84,1838
845.86,1778
845.88,1706
845.9,1658
845.92,1700
845.94,1760
845.96,1832
845.98,1892
846,1988
846.02,2078
846.04,2153
846.06,2205
846.08,2310
846.1,2475
846.12,2580
846.14,2565
846.16,2618
846.18,2663
846.2,2633
846.22,2580
846.24,2565
846.26,2558
846.28,2498
846.3,2415
846.32,2385
846.34,2378
846.36,2400
846.38,2453
846.4,2438
846.42,2370
846.44,2288
846.46,2228
846.48,2153
846.5,2115
846.52,2093
846.54,2078
846.56,2048
846.58,1973
846.6,1890
846.62,1808
846.64,1725
846.66,1643
846.68,1598
846.7,1575
846.72,1568
846.74,1590
846.76,1523
846.78,1463
846.8,1485
846.82,1530
846.84,1620
846.86,1823
846.88,2018
846.9,2183
846.92,2310
846.94,2400
846.96,2475
846.98,2520
847,2550
847.02,2580
847.04,2580
847.06,2558
847.08,2520
847.1,2438
847.12,2370
847.14,2355
847.16,2318
847.18,2295
847.2,2273
847.22,2243
847.24,2175
847.26,2093
847.28,1965
847.3,1980
847.32,2055
847.34,2055
847.36,1995
847.38,1935
847.4,1853
847.42,1838
847.44,1868
847.46,1853
847.48,1853
847.5,1838
847.52,1725
847.54,1665
847.56,1620
847.58,1590
847.6,1598
847.62,1590
847.64,1553
847.66,1575
847.68,1673
847.7,1793
847.72,1883
847.74,1958
847.76,2063
847.78,2258
847.8,2348
847.82,2370
847.84,2408
847.86,2378
847.88,2333
847.9,2348
847.92,2378
847.94,2348
847.96,2303
847.98,2295
848,2318
848.02,2295
848.04,2295
848.06,2325
848.08,2340
848.1,2325
848.12,2303
848.14,2318
848.16,2295
848.18,2235
848.2,2190
848.22,2153
848.24,2078
848.26,2010
848.28,1950
848.3,1898
848.32,1868
848.34,1838
848.36,1793
848.38,1755
848.4,1748
848.42,1755
848.44,1725
848.46,1628
848.48,1553
848.5,1523
848.52,1545
848.54,1575
848.56,1688
848.58,1800
848.6,1868
848.62,1950
848.64,2076
848.66,2352
848.68,2646
848.7,2751
848.72,2798
848.74,2874
848.76,2893
848.78,2874
848.8,2789
848.82,2665
848.84,2580
848.86,2523
848.88,2475
848.9,2361
848.92,2304
848.94,2371
848.96,2399
848.98,2342
849,2380
849.02,2409
849.04,2371
849.06,2257
849.08,2105
849.1,1915
849.12,1753
849.14,1706
849.16,1810
849.18,1801
849.2,1734
849.22,1696
849.24,1620
849.26,1563
849.28,1544
849.3,1478
849.32,1563
849.34,1668
849.36,1715
849.38,1677
849.4,1744
849.42,1934
849.44,2133
849.46,2399
849.48,2627
849.5,2732
849.52,2760
849.54,2770
849.56,2836
849.58,2855
849.6,2893
849.62,2884
849.64,2779
849.66,2675
849.68,2646
849.7,2627
849.72,2532
849.74,2475
849.76,2428
849.78,2409
849.8,2342
849.82,2295
849.84,2371
849.86,2437
849.88,2437
849.9,2342
849.92,2209
849.94,2105
849.96,2114
849.98,2143
850,2143
850.02,2105
850.04,2010
850.06,1934
850.08,1858
850.1,1772
850.12,1706
850.14,1677
850.16,1677
850.18,1791
850.2,1896
850.22,2029
850.24,2238
850.26,2447
850.28,2770
850.3,2931
850.32,2941
850.34,2893
850.36,2722
850.38,2551
850.4,2437
850.42,2399
850.44,2504
850.46,2608
850.48,2608
850.5,2475
850.52,2399
850.54,2361
850.56,2314
850.58,2247
850.6,2228
850.62,2209
850.64,2171
850.66,2124
850.68,2067
850.7,1962
850.72,1848
850.74,1706
850.76,1601
850.78,1487
850.8,1497
850.82,1573
850.84,1573
850.86,1497
850.88,1383
850.9,1212
850.92,1231
850.94,1383
850.96,1554
850.98,1687
851,1867
851.02,2057
851.04,2143
851.06,2276
851.08,2551
851.1,2741
851.12,2846
851.14,2846
851.16,2751
851.18,2656
851.2,2608
851.22,2523
851.24,2409
851.26,2314
851.28,2257
851.3,2200
851.32,2133
851.34,2105
851.36,2114
851.38,2086
851.4,1942
851.42,1883
851.44,1883
851.46,1860
851.48,1789
851.5,1707
851.52,1613
851.54,1472
851.56,1401
851.58,1366
851.6,1307
851.62,1272
851.64,1155
851.66,1037
851.68,967
851.7,943
851.72,978
851.74,931
851.76,802
851.78,814
851.8,931
851.82,1225
851.84,1601
851.86,1907
851.88,2153
851.9,2330
851.92,2447
851.94,2529
851.96,2612
851.98,2694
852,2753
852.02,2788
852.04,2894
852.06,2870
852.08,2753
852.1,2635
852.12,2529
852.14,2435
852.16,2424
852.18,2365
852.2,2212
852.22,2095
852.24,2036
852.26,1989
852.28,2012
852.3,2071
852.32,2083
852.34,2001
852.36,1907
852.38,1813
852.4,1648
852.42,1495
852.44,1472
852.46,1484
852.48,1472
852.5,1366
852.52,1202
852.54,1143
852.56,1096
852.58,1061
852.6,978
852.62,1049
852.64,1237
852.66,1507
852.68,1777
852.7,2048
852.72,2318
852.74,2506
852.76,2729
852.78,2823
852.8,2764
852.82,2776
852.84,2905
852.86,2964
852.88,2952
852.9,2882
852.92,2835
852.94,2717
852.96,2506
852.98,2388
853,2294
853.02,2212
853.04,2130
853.06,2177
853.08,2224
853.1,2177
853.12,2106
853.14,2059
853.16,1965
853.18,1860
853.2,1754
853.22,1707
853.24,1683
853.26,1683
853.28,1660
853.3,1601
853.32,1531
853.34,1554
853.36,1601
853.38,1578
853.4,1531
853.42,1495
853.44,1554
853.46,1730
853.48,1989
853.5,2283
853.52,2541
853.54,2788
853.56,2976
853.58,3058
853.6,3058
853.62,2999
853.64,3011
853.66,3058
853.68,3011
853.7,2905
853.72,2764
853.74,2670
853.76,2565
853.78,2529
853.8,2506
853.82,2447
853.84,2412
853.86,2330
853.88,2189
853.9,2165
853.92,2177
853.94,2071
853.96,1895
853.98,1836
854,1742
854.02,1601
854.04,1519
854.06,1378
854.08,1249
854.1,1202
854.12,1143
854.14,1037
854.16,943
854.18,908
854.2,943
854.22,1096
854.24,1260
854.26,1484
854.28,1789
854.3,2142
854.32,2482
854.34,2811
854.36,3082
854.38,3270
854.4,3305
854.42,3199
854.44,3082
854.46,2941
854.48,2811
854.5,2694
854.52,2623
854.54,2529
854.56,2494
854.58,2447
854.6,2330
854.62,2189
854.64,2142
854.66,1989
854.68,1871
854.7,1883
854.72,1860
854.74,1813
854.76,1707
854.78,1613
854.8,1531
854.82,1343
854.84,1343
854.86,1331
854.88,1260
854.9,1190
854.92,1178
854.94,1166
854.96,1084
854.98,1072
855,1049
855.02,990
855.04,978
855.06,1119
855.08,1260
855.1,1472
855.12,1777
855.14,2200
855.16,2635
855.18,2905
855.2,2929
855.22,2964
855.24,2988
855.26,2941
855.28,2823
855.3,2717
855.32,2600
855.34,2459
855.36,2365
855.38,2212
855.4,2106
855.42,2165
855.44,2259
855.46,2247
855.48,2212
855.5,2118
855.52,1989
855.54,1789
855.56,1730
855.58,1613
855.6,1413
855.62,1249
855.64,1072
855.66,1072
855.68,1166
855.7,1213
855.72,1260
855.74,1260
855.76,1237
855.78,1155
855.8,1084
855.82,1108
855.84,1131
855.86,1155
855.88,1049
855.9,1143
855.92,1401
855.94,1672
855.96,1930
855.98,2142
856,2424
856.02,2670
856.04,2870
856.06,3105
856.08,3246
856.1,3258
856.12,3187
856.14,3105
856.16,2929
856.18,2706
856.2,2506
856.22,2306
856.24,2165
856.26,2118
856.28,2095
856.3,2059
856.32,2001
856.34,2012
856.36,2001
856.38,2001
856.4,2036
856.42,2036
856.44,1965
856.46,1883
856.48,1836
856.5,1766
856.52,1660
856.54,1460
856.56,1366
856.58,1296
856.6,1237
856.62,1249
856.64,1237
856.66,1213
856.68,1213
856.7,1178
856.72,1213
856.74,1284
856.76,1460
856.78,1742
856.8,1930
856.82,2318
856.84,2741
856.86,3023
856.88,3152
856.9,3246
856.92,3270
856.94,3199
856.96,3105
856.98,3082
857,2988
857.02,2929
857.04,2800
857.06,2741
857.08,2706
857.1,2682
857.12,2694
857.14,2741
857.16,2764
857.18,2682
857.2,2612
857.22,2494
857.24,2341
857.26,2236
857.28,2189
857.3,2177
857.32,2106
857.34,2083
857.36,2036
857.38,1813
857.4,1648
857.42,1613
857.44,1531
857.46,1460
857.48,1484
857.5,1554
857.52,1636
857.54,1648
857.56,1636
857.58,1707
857.6,1824
857.62,2071
857.64,2435
857.66,2706
857.68,2905
857.7,3105
857.72,3258
857.74,3375
857.76,3434
857.78,3422
857.8,3340
857.82,3246
857.84,3187
857.86,3058
857.88,2870
857.9,2776
857.92,2682
857.94,2612
857.96,2506
857.98,2424
858,2341
858.02,2283
858.04,2212
858.06,2130
858.08,2071
858.1,1989
858.12,1918
858.14,1860
858.16,1766
858.18,1695
858.2,1660
858.22,1578
858.24,1378
858.26,1166
858.28,1084
858.3,1037
858.32,1131
858.34,1202
858.36,1119
858.38,1061
858.4,1096
858.42,1225
858.44,1425
858.46,1625
858.48,1918
858.5,2259
858.52,2659
858.54,2976
858.56,3187
858.58,3211
858.6,3152
858.62,3199
858.64,3164
858.66,3070
858.68,2941
858.7,2729
858.72,2435
858.74,2306
858.76,2294
858.78,2271
858.8,2236
858.82,2142
858.84,2095
858.86,2071
858.88,2048
858.9,1942
858.92,1836
858.94,1719
858.96,1625
858.98,1472
859,1343
859.02,1307
859.04,1319
859.06,1354
859.08,1413
859.1,1425
859.12,1413
859.14,1390
859.16,1213
859.18,1025
859.2,955
859.22,931
859.24,896
859.26,837
859.28,896
859.3,1096
859.32,1495
859.34,1848
859.36,2189
859.38,2529
859.4,2847
859.42,3129
859.44,3446
859.46,3634
859.48,3728
859.5,3669
859.52,3516
859.54,3411
859.56,3258
859.58,3105
859.6,2917
859.62,2729
859.64,2600
859.66,2565
859.68,2471
859.7,2365
859.72,2294
859.74,2306
859.76,2388
859.78,2388
859.8,2400
859.82,2318
859.84,2177
859.86,2071
859.88,1965
859.9,1883
859.92,1777
859.94,1719
859.96,1683
859.98,1589
860,1460
860.02,1331
860.04,1296
860.06,1237
860.08,1225
860.1,1249
860.12,1260
860.14,1260
860.16,1272
860.18,1284
860.2,1319
860.22,1425
860.24,1507
860.26,1824
860.28,2318
860.3,2729
860.32,3023
860.34,3352
860.36,3634
860.38,3798
860.4,3845
860.42,3763
860.44,3610
860.46,3493
860.48,3375
860.5,3293
860.52,3140
860.54,2952
860.56,2753
860.58,2694
860.6,2670
860.62,2576
860.64,2482
860.66,2435
860.68,2283
860.7,2106
860.72,2130
860.74,2106
860.76,1965
860.78,1742
860.8,1719
860.82,1742
860.84,1695
860.86,1601
860.88,1531
860.9,1448
860.92,1390
860.94,1307
860.96,1166
860.98,1037
861,1002
861.02,1025
861.04,1014
861.06,990
861.08,1014
861.1,1260
861.12,1578
861.14,1907
861.16,2306
861.18,2682
861.2,3046
861.22,3305
861.24,3540
861.26,3740
861.28,3822
861.3,3845
861.32,3740
861.34,3552
861.36,3399
861.38,3211
861.4,3035
861.42,2894
861.44,2741
861.46,2670
861.48,2623
861.5,2670
861.52,2588
861.54,2435
861.56,2353
861.58,2247
861.6,2165
861.62,2118
861.64,2048
861.66,1989
861.68,1824
861.7,1730
861.72,1554
861.74,1343
861.76,1272
861.78,1225
861.8,1190
861.82,1119
861.84,1072
861.86,967
861.88,861
861.9,767
861.92,685
861.94,685
861.96,708
861.98,755
862,896
862.02,1143
862.04,1448
862.06,1848
862.08,2388
862.1,2941
862.12,3305
862.14,3540
862.16,3669
862.18,3728
862.2,3775
862.22,3798
862.24,3822
862.26,3610
862.28,3305
862.3,3058
862.32,2811
862.34,2706
862.36,2659
862.38,2635
862.4,2494
862.42,2447
862.44,2435
862.46,2388
862.48,2306
862.5,2236
862.52,2118
862.54,2012
862.56,1918
862.58,1930
862.6,1860
862.62,1730
862.64,1625
862.66,1437
862.68,1284
862.7,1225
862.72,1155
862.74,1084
862.76,1072
862.78,1096
862.8,990
862.82,884
862.84,814
862.86,708
862.88,673
862.9,614
862.92,743
862.94,908
862.96,1202
862.98,1613
863,2124
863.02,2485
863.04,2912
863.06,3216
863.08,3501
863.1,3558
863.12,3492
863.14,3406
863.16,3321
863.18,3254
863.2,3188
863.22,3121
863.24,2903
863.26,2665
863.28,2542
863.3,2523
863.32,2456
863.34,2380
863.36,2361
863.38,2342
863.4,2285
863.42,2238
863.44,2162
863.46,2038
863.48,1877
863.5,1744
863.52,1687
863.54,1668
863.56,1487
863.58,1335
863.6,1231
863.62,1193
863.64,1202
863.66,1212
863.68,1231
863.7,1193
863.72,1098
863.74,1050
863.76,1079
863.78,1107
863.8,1155
863.82,1269
863.84,1525
863.86,1877
863.88,2295
863.9,2760
863.92,3150
863.94,3416
863.96,3558
863.98,3606
864,3625
864.02,3606
864.04,3511
864.06,3368
864.08,3093
864.1,2798
864.12,2551
864.14,2380
864.16,2285
864.18,2266
864.2,2295
864.22,2333
864.24,2361
864.26,2295
864.28,2209
864.3,2095
864.32,2000
864.34,1934
864.36,1858
864.38,1791
864.4,1687
864.42,1516
864.44,1430
864.46,1430
864.48,1430
864.5,1373
864.52,1259
864.54,1069
864.56,908
864.58,889
864.6,946
864.62,908
864.64,870
864.66,936
864.68,1041
864.7,1297
864.72,1677
864.74,2124
864.76,2627
864.78,3055
864.8,3378
864.82,3577
864.84,3615
864.86,3568
864.88,3577
864.9,3539
864.92,3397
864.94,3216
864.96,3026
864.98,2874
865,2751
865.02,2751
865.04,2760
865.06,2646
865.08,2475
865.1,2437
865.12,2513
865.14,2542
865.16,2456
865.18,2352
865.2,2133
865.22,1981
865.24,1810
865.26,1582
865.28,1440
865.3,1345
865.32,1288
865.34,1259
865.36,1278
865.38,1221
865.4,1107
865.42,1031
865.44,955
865.46,860
865.48,889
865.5,1003
865.52,1022
865.54,1060
865.56,1193
865.58,1392
865.6,1658
865.62,2029
865.64,2393
865.66,2670
865.68,2910
865.7,3135
865.72,3345
865.74,3428
865.76,3413
865.78,3323
865.8,3143
865.82,2948
865.84,2805
865.86,2745
865.88,2738
865.9,2640
865.92,2483
865.94,2385
865.96,2288
865.98,2205
866,2213
866.02,2243
866.04,2250
866.06,2243
866.08,2213
866.1,2160
866.12,2040
866.14,1890
866.16,1755
866.18,1688
866.2,1628
866.22,1575
866.24,1493
866.26,1395
866.28,1425
866.3,1448
866.32,1395
866.34,1283
866.36,1215
866.38,1185
866.4,1200
866.42,1305
866.44,1523
866.46,1800
866.48,2100
866.5,2430
866.52,2723
866.54,3015
866.56,3218
866.58,3338
866.6,3368
866.62,3323
866.64,3285
866.66,3225
866.68,3105
866.7,2970
866.72,2858
866.74,2738
866.76,2558
866.78,2438
866.8,2385
866.82,2415
866.84,2460
866.86,2468
866.88,2378
866.9,2213
866.92,2108
866.94,2085
866.96,2025
866.98,1958
867,1875
867.02,1755
867.04,1658
867.06,1560
867.08,1508
867.1,1425
867.12,1305
867.14,1253
867.16,1283
867.18,1260
867.2,1215
867.22,1230
867.24,1238
867.26,1230
867.28,1253
867.3,1313
867.32,1485
867.34,1725
867.36,2070
867.38,2483
867.4,2835
867.42,3098
867.44,3188
867.46,3195
867.48,3203
867.5,3165
867.52,3128
867.54,3105
867.56,2933
867.58,2790
867.6,2648
867.62,2595
867.64,2558
867.66,2505
867.68,2415
867.7,2385
867.72,2303
867.74,2205
867.76,2115
867.78,2063
867.8,2033
867.82,1973
867.84,1845
867.86,1763
867.88,1725
867.9,1658
867.92,1613
867.94,1508
867.96,1380
867.98,1260
868,1178
868.02,1110
868.04,1133
868.06,1118
868.08,1088
868.1,1080
868.12,1058
868.14,1005
868.16,1020
868.18,1170
868.2,1350
868.22,1613
868.24,1950
868.26,2276
868.28,2552
868.3,2792
868.32,2960
868.34,3092
868.36,3170
868.38,3140
868.4,3086
868.42,3044
868.44,2918
868.46,2786
868.48,2642
868.5,2480
868.52,2396
868.54,2354
868.56,2306
868.58,2270
868.6,2258
868.62,2234
868.64,2216
868.66,2180
868.68,2108
868.7,2006
868.72,1928
868.74,1886
868.76,1844
868.78,1748
868.8,1670
868.82,1628
868.84,1580
868.86,1580
868.88,1520
868.9,1478
868.92,1454
868.94,1424
868.96,1370
868.98,1250
869,1154
869.02,1142
869.04,1214
869.06,1328
869.08,1454
869.1,1652
869.12,1958
869.14,2324
869.16,2624
869.18,2840
869.2,2984
869.22,3062
869.24,3068
869.26,3026
869.28,2966
869.3,2912
869.32,2822
869.34,2684
869.36,2564
869.38,2444
869.4,2312
869.42,2174
869.44,2120
869.46,2102
869.48,2102
869.5,2114
869.52,2108
869.54,2096
869.56,2096
869.58,2072
869.6,2000
869.62,1898
869.64,1760
869.66,1658
869.68,1580
869.7,1526
869.72,1466
869.74,1394
869.76,1340
869.78,1298
869.8,1250
869.82,1238
869.84,1226
869.86,1226
869.88,1316
869.9,1454
869.92,1628
869.94,1850
869.96,2120
869.98,2396
870,2654
870.02,2858
870.04,3014
870.06,3092
870.08,3074
870.1,3044
870.12,3032
870.14,2954
870.16,2786
870.18,2660
870.2,2576
870.22,2450
870.24,2354
870.26,2300
870.28,2240
870.3,2204
870.32,2174
870.34,2150
870.36,2108
870.38,2024
870.4,1976
870.42,1934
870.44,1820
870.46,1676
870.48,1550
870.5,1484
870.52,1466
870.54,1454
870.56,1394
870.58,1340
870.6,1292
870.62,1220
870.64,1148
870.66,1118
870.68,1106
870.7,1148
870.72,1310
870.74,1556
870.76,1850
870.78,2150
870.8,2426
870.82,2642
870.84,2810
870.86,2918
870.88,2960
870.9,2990
870.92,2990
870.94,2954
870.96,2864
870.98,2738
871,2606
871.02,2510
871.04,2432
871.06,2372
871.08,2306
871.1,2216
871.12,2126
871.14,2072
871.16,2036
871.18,1946
871.2,1868
871.22,1814
871.24,1766
871.26,1724
871.28,1652
871.3,1586
871.32,1562
871.34,1532
871.36,1484
871.38,1406
871.4,1382
871.42,1346
871.44,1262
871.46,1196
871.48,1118
871.5,1076
871.52,1016
871.54,1040
871.56,1166
871.58,1292
871.6,1520
871.62,1832
871.64,2180
871.66,2492
871.68,2738
871.7,2966
871.72,3104
871.74,3116
871.76,3086
871.78,3020
871.8,2942
871.82,2846
871.84,2708
871.86,2594
871.88,2522
871.9,2426
871.92,2264
871.94,2174
871.96,2192
871.98,2156
872,2060
872.02,1976
872.04,1994
872.06,1952
872.08,1910
872.1,1862
872.12,1802
872.14,1718
872.16,1640
872.18,1574
872.2,1496
872.22,1382
872.24,1328
872.26,1334
872.28,1292
872.3,1232
872.32,1148
872.34,1070
872.36,1052
872.38,1022
872.4,1040
872.42,1220
872.44,1436
872.46,1694
872.48,1970
872.5,2336
872.52,2648
872.54,2888
872.56,3068
872.58,3152
872.6,3158
872.62,3128
872.64,3068
872.66,2978
872.68,2816
872.7,2612
872.72,2450
872.74,2330
872.76,2252
872.78,2222
872.8,2198
872.82,2192
872.84,2162
872.86,2096
872.88,2048
872.9,2000
872.92,1928
872.94,1856
872.96,1820
872.98,1814
873,1742
873.02,1628
873.04,1532
873.06,1466
873.08,1382
873.1,1352
873.12,1340
873.14,1310
873.16,1310
873.18,1304
873.2,1280
873.22,1352
873.24,1454
873.26,1610
873.28,1886
873.3,2210
873.32,2516
873.34,2786
873.36,2984
873.38,3128
873.4,3176
873.42,3194
873.44,3146
873.46,3014
873.48,2900
873.5,2768
873.52,2630
873.54,2468
873.56,2306
873.58,2222
873.6,2222
873.62,2222
873.64,2198
873.66,2132
873.68,2060
873.7,2006
873.72,1964
873.74,1916
873.76,1922
873.78,1904
873.8,1826
873.82,1742
873.84,1688
873.86,1646
873.88,1574
873.9,1526
873.92,1490
873.94,1430
873.96,1370
873.98,1274
874,1244
874.02,1256
874.04,1328
874.06,1532
874.08,1874
874.1,2252
874.12,2570
874.14,2816
874.16,2954
874.18,3020
874.2,3074
874.22,3098
874.24,3032
874.26,2912
874.28,2786
874.3,2654
874.32,2492
874.34,2348
874.36,2222
874.38,2180
874.4,2198
874.42,2186
874.44,2156
874.46,2126
874.48,2048
874.5,1982
874.52,1916
874.54,1874
874.56,1784
874.58,1724
874.6,1652
874.62,1544
874.64,1442
874.66,1340
874.68,1274
874.7,1268
874.72,1286
874.74,1244
874.76,1172
874.78,1148
874.8,1208
874.82,1316
874.84,1496
874.86,1694
874.88,2000
874.9,2282
874.92,2564
874.94,2792
874.96,2960
874.98,3086
875,3122
875.02,3122
875.04,3080
875.06,2996
875.08,2852
875.1,2708
875.12,2576
875.14,2456
875.16,2360
875.18,2348
875.2,2306
875.22,2252
875.24,2204
875.26,2132
875.28,2072
875.3,2030
875.32,1958
875.34,1838
875.36,1688
875.38,1574
875.4,1544
875.42,1532
875.44,1508
875.46,1448
875.48,1370
875.5,1304
875.52,1256
875.54,1208
875.56,1160
875.58,1136
875.6,1118
875.62,1118
875.64,1142
875.66,1208
875.68,1358
875.7,1586
875.72,1820
875.74,2078
875.76,2360
875.78,2660
875.8,2876
875.82,2960
875.84,2960
875.86,2900
875.88,2876
875.9,2786
875.92,2618
875.94,2450
875.96,2294
875.98,2138
876,2006
876.02,1964
876.04,1988
876.06,1994
876.08,1970
876.1,1970
876.12,1934
876.14,1892
876.16,1856
876.18,1772
876.2,1688
876.22,1610
876.24,1502
876.26,1376
876.28,1286
876.3,1274
876.32,1280
876.34,1226
876.36,1166
876.38,1130
876.4,1094
876.42,1112
876.44,1160
876.46,1154
876.48,1124
876.5,1118
876.52,1178
876.54,1262
876.56,1436
876.58,1688
876.6,1970
876.62,2222
876.64,2444
876.66,2618
876.68,2720
876.7,2762
876.72,2768
876.74,2666
876.76,2528
876.78,2438
876.8,2348
876.82,2294
876.84,2288
876.86,2270
876.88,2240
876.9,2198
876.92,2162
876.94,2132
876.96,2114
876.98,2114
877,2108
877.02,2024
877.04,1910
877.06,1838
877.08,1772
877.1,1724
877.12,1688
877.14,1646
877.16,1586
877.18,1514
877.2,1406
877.22,1334
877.24,1316
877.26,1286
877.28,1310
877.3,1364
877.32,1406
877.34,1502
877.36,1682
877.38,1862
877.4,2066
877.42,2294
877.44,2486
877.46,2630
877.48,2720
877.5,2780
877.52,2804
877.54,2780
877.56,2720
877.58,2606
877.6,2486
877.62,2366
877.64,2252
877.66,2192
877.68,2246
877.7,2288
877.72,2270
877.74,2204
877.76,2168
877.78,2150
877.8,2126
877.82,2066
877.84,2000
877.86,1892
877.88,1784
877.9,1712
877.92,1664
877.94,1592
877.96,1520
877.98,1484
878,1496
878.02,1514
878.04,1526
878.06,1496
878.08,1442
878.1,1400
878.12,1364
878.14,1364
878.16,1418
878.18,1544
878.2,1718
878.22,1904
878.24,2114
878.26,2324
878.28,2468
878.3,2630
878.32,2744
878.34,2756
878.36,2720
878.38,2696
878.4,2606
878.42,2516
878.44,2498
878.46,2432
878.48,2318
878.5,2234
878.52,2204
878.54,2162
878.56,2108
878.58,2084
878.6,2084
878.62,2078
878.64,2066
878.66,1994
878.68,1928
878.7,1856
878.72,1754
878.74,1724
878.76,1694
878.78,1652
878.8,1622
878.82,1580
878.84,1514
878.86,1430
878.88,1376
878.9,1358
878.92,1346
878.94,1310
878.96,1232
878.98,1202
879,1250
879.02,1274
879.04,1328
879.06,1436
879.08,1556
879.1,1712
879.12,1922
879.14,2108
879.16,2294
879.18,2378
879.2,2438
879.22,2468
879.24,2456
879.26,2396
879.28,2342
879.3,2312
879.32,2252
879.34,2174
879.36,2120
879.38,2102
879.4,2078
879.42,2048
879.44,2066
879.46,2084
879.48,2048
879.5,2018
879.52,1982
879.54,1976
879.56,1982
879.58,1964
879.6,1910
879.62,1862
879.64,1880
879.66,1850
879.68,1790
879.7,1712
879.72,1646
879.74,1532
879.76,1436
879.78,1430
879.8,1484
879.82,1532
879.84,1544
879.86,1520
879.88,1454
879.9,1436
879.92,1550
879.94,1628
879.96,1772
879.98,2018
880,2180
880.02,2300
880.04,2450
880.06,2534
880.08,2576
880.1,2624
880.12,2630
880.14,2558
880.16,2492
880.18,2432
880.2,2330
880.22,2276
880.24,2246
880.26,2252
880.28,2246
880.3,2270
880.32,2240
880.34,2180
880.36,2096
880.38,2060
880.4,2036
880.42,2018
880.44,2012
880.46,2018
880.48,2006
880.5,1964
880.52,1886
880.54,1814
880.56,1766
880.58,1724
880.6,1688
880.62,1628
880.64,1610
880.66,1604
880.68,1580
880.7,1556
880.72,1610
880.74,1736
880.76,1856
880.78,1976
880.8,2132
880.82,2264
880.84,2414
880.86,2582
880.88,2720
880.9,2828
880.92,2846
880.94,2774
880.96,2732
880.98,2690
881,2600
881.02,2594
881.04,2588
881.06,2516
881.08,2414
881.1,2348
881.12,2396
881.14,2420
881.16,2414
881.18,2396
881.2,2288
881.22,2168
881.24,2102
881.26,2132
881.28,2126
881.3,2078
881.32,2066
881.34,2048
881.36,2006
881.38,1952
881.4,1898
881.42,1922
881.44,1928
881.46,1880
881.48,1802
881.5,1730
881.52,1640
881.54,1580
881.56,1592
881.58,1664
881.6,1718
881.62,1838
881.64,2024
881.66,2216
881.68,2432
881.7,2624
881.72,2732
881.74,2786
881.76,2822
881.78,2846
881.8,2894
881.82,2882
881.84,2822
881.86,2738
881.88,2636
881.9,2534
881.92,2528
881.94,2564
881.96,2564
881.98,2534
882,2510
882.02,2468
882.04,2378
882.06,2288
882.08,2210
882.1,2120
882.12,2072
882.14,2054
882.16,2060
882.18,2048
882.2,1976
882.22,1838
882.24,1730
882.26,1688
882.28,1664
882.3,1652
882.32,1604
882.34,1568
882.36,1556
882.38,1562
882.4,1544
882.42,1490
882.44,1472
882.46,1520
882.48,1610
882.5,1748
882.52,1922
882.54,2132
882.56,2360
882.58,2498
882.6,2564
882.62,2624
882.64,2690
882.66,2744
882.68,2720
882.7,2630
882.72,2522
882.74,2462
882.76,2414
882.78,2348
882.8,2276
882.82,2204
882.84,2168
882.86,2108
882.88,2072
882.9,2048
882.92,2102
882.94,2132
882.96,2072
882.98,1935
883,1830
883.02,1830
883.04,1845
883.06,1838
883.08,1808
883.1,1778
883.12,1755
883.14,1748
883.16,1740
883.18,1703
883.2,1598
883.22,1418
883.24,1335
883.26,1298
883.28,1290
883.3,1290
883.32,1253
883.34,1313
883.36,1463
883.38,1628
883.4,1845
883.42,2040
883.44,2273
883.46,2558
883.48,2753
883.5,2858
883.52,2918
883.54,2835
883.56,2738
883.58,2723
883.6,2693
883.62,2678
883.64,2663
883.66,2625
883.68,2528
883.7,2453
883.72,2423
883.74,2385
883.76,2288
883.78,2228
883.8,2310
883.82,2408
883.84,2415
883.86,2333
883.88,2288
883.9,2213
883.92,2153
883.94,2138
883.96,2063
883.98,1965
884,1868
884.02,1830
884.04,1808
884.06,1815
884.08,1830
884.1,1808
884.12,1763
884.14,1673
884.16,1598
884.18,1545
884.2,1575
884.22,1725
884.24,1965
884.26,2228
884.28,2468
884.3,2678
884.32,2850
884.34,2993
884.36,3068
884.38,3083
884.4,3045
884.42,2955
884.44,2775
884.46,2700
884.48,2633
884.5,2505
884.52,2445
884.54,2483
884.56,2475
884.58,2453
884.6,2423
884.62,2363
884.64,2378
884.66,2415
884.68,2393
884.7,2348
884.72,2325
884.74,2243
884.76,2115
884.78,2048
884.8,1943
884.82,1830
884.84,1718
884.86,1605
884.88,1545
884.9,1508
884.92,1455
884.94,1410
884.96,1425
884.98,1493
885,1538
885.02,1613
885.04,1830
885.06,2093
885.08,2490
885.1,2775
885.12,2978
885.14,3045
885.16,3150
885.18,3263
885.2,3300
885.22,3240
885.24,3203
885.26,3113
885.28,2985
885.3,2798
885.32,2715
885.34,2745
885.36,2745
885.38,2678
885.4,2603
885.42,2543
885.44,2468
885.46,2385
885.48,2333
885.5,2333
885.52,2340
885.54,2295
885.56,2198
885.58,2018
885.6,1823
885.62,1695
885.64,1628
885.66,1590
885.68,1583
885.7,1560
885.72,1515
885.74,1470
885.76,1463
885.78,1500
885.8,1493
885.82,1425
885.84,1425
885.86,1478
885.88,1650
885.9,1890
885.92,2130
885.94,2385
885.96,2640
885.98,2858
886,2948
886.02,3008
886.04,2993
886.06,2865
886.08,2775
886.1,2753
886.12,2723
886.14,2640
886.16,2535
886.18,2468
886.2,2430
886.22,2400
886.24,2363
886.26,2288
886.28,2183
886.3,2160
886.32,2160
886.34,2145
886.36,2070
886.38,2018
886.4,1898
886.42,1763
886.44,1635
886.46,1545
886.48,1523
886.5,1478
886.52,1418
886.54,1380
886.56,1328
886.58,1290
886.6,1260
886.62,1223
886.64,1185
886.66,1193
886.68,1133
886.7,1065
886.72,1095
886.74,1245
886.76,1418
886.78,1688
886.8,1965
886.82,2160
886.84,2333
886.86,2520
886.88,2565
886.9,2595
886.92,2633
886.94,2663
886.96,2663
886.98,2618
887,2550
887.02,2445
887.04,2325
887.06,2228
887.08,2145
887.1,2123
887.12,2115
887.14,2138
887.16,2168
887.18,2070
887.2,1973
887.22,1920
887.24,1913
887.26,1845
887.28,1793
887.3,1718
887.32,1673
887.34,1665
887.36,1605
887.38,1538
887.4,1470
887.42,1418
887.44,1440
887.46,1433
887.48,1395
887.5,1373
887.52,1343
887.54,1320
887.56,1313
887.58,1260
887.6,1238
887.62,1283
887.64,1433
887.66,1665
887.68,1980
887.7,2220
887.72,2378
887.74,2588
887.76,2775
887.78,2880
887.8,2940
887.82,2993
887.84,2940
887.86,2895
887.88,2880
887.9,2858
887.92,2745
887.94,2580
887.96,2490
887.98,2505
888,2543
888.02,2498
888.04,2415
888.06,2333
888.08,2273
888.1,2295
888.12,2273
888.14,2205
888.16,2115
888.18,2048
888.2,1980
888.22,1935
888.24,1965
888.26,1958
888.28,1875
888.3,1785
888.32,1718
888.34,1710
888.36,1725
888.38,1658
888.4,1560
888.42,1515
888.44,1493
888.46,1485
888.48,1515
888.5,1635
888.52,1748
888.54,1928
888.56,2175
888.58,2460
888.6,2663
888.62,2790
888.64,2903
888.66,2940
888.68,2918
888.7,2888
888.72,2880
888.74,2843
888.76,2798
888.78,2805
888.8,2798
888.82,2708
888.84,2655
888.86,2633
888.88,2625
888.9,2633
888.92,2588
888.94,2535
888.96,2483
888.98,2445
889,2363
889.02,2205
889.04,2153
889.06,2100
889.08,2070
889.1,2003
889.12,1883
889.14,1800
889.16,1725
889.18,1725
889.2,1733
889.22,1725
889.24,1665
889.26,1635
889.28,1643
889.3,1605
889.32,1605
889.34,1733
889.36,1935
889.38,2055
889.4,2175
889.42,2408
889.44,2618
889.46,2738
889.48,2760
889.5,2805
889.52,2783
889.54,2723
889.56,2670
889.58,2633
889.6,2610
889.62,2535
889.64,2438
889.66,2393
889.68,2363
889.7,2288
889.72,2235
889.74,2198
889.76,2205
889.78,2265
889.8,2228
889.82,2198
889.84,2153
889.86,2085
889.88,2055
889.9,1965
889.92,1905
889.94,1845
889.96,1823
889.98,1815
890,1740
890.02,1590
890.04,1553
890.06,1560
890.08,1500
890.1,1448
890.12,1433
890.14,1425
890.16,1470
890.18,1568
890.2,1643
890.22,1793
890.24,2070
890.26,2445
890.28,2700
890.3,2828
890.32,2948
890.34,3030
890.36,3068
890.38,3060
890.4,2993
890.42,2895
890.44,2820
890.46,2745
890.48,2603
890.5,2490
890.52,2430
890.54,2363
890.56,2310
890.58,2280
890.6,2280
890.62,2228
890.64,2168
890.66,2153
890.68,2123
890.7,2070
890.72,1958
890.74,1815
890.76,1695
890.78,1628
890.8,1560
890.82,1583
890.84,1575
890.86,1508
890.88,1478
890.9,1485
890.92,1448
890.94,1373
890.96,1313
890.98,1283
891,1290
891.02,1283
891.04,1260
891.06,1260
891.08,1350
891.1,1575
891.12,1868
891.14,2078
891.16,2310
891.18,2588
891.2,2858
891.22,3068
891.24,3143
891.26,3068
891.28,2993
891.3,2985
891.32,2925
891.34,2828
891.36,2738
891.38,2663
891.4,2663
891.42,2693
891.44,2648
891.46,2558
891.48,2490
891.5,2475
891.52,2445
891.54,2400
891.56,2280
891.58,2153
891.6,2018
891.62,1875
891.64,1733
891.66,1598
891.68,1560
891.7,1590
891.72,1620
891.74,1598
891.76,1515
891.78,1403
891.8,1238
891.82,1193
891.84,1260
891.86,1313
891.88,1275
891.9,1208
891.92,1148
891.94,1178
891.96,1223
891.98,1275
892,1440
892.02,1725
892.04,2078
892.06,2423
892.08,2685
892.1,2865
892.12,2978
892.14,3068
892.16,3165
892.18,3218
892.2,3203
892.22,3128
892.24,3008
892.26,2888
892.28,2768
892.3,2633
892.32,2520
892.34,2438
892.36,2415
892.38,2415
892.4,2400
892.42,2355
892.44,2273
892.46,2153
892.48,2108
892.5,2070
892.52,1995
892.54,1913
892.56,1845
892.58,1793
892.6,1763
892.62,1718
892.64,1658
892.66,1605
892.68,1545
892.7,1448
892.72,1403
892.74,1328
892.76,1298
892.78,1335
892.8,1373
892.82,1298
892.84,1193
892.86,1223
892.88,1410
892.9,1665
892.92,1935
892.94,2198
892.96,2438
892.98,2715
893,2970
893.02,3113
893.04,3158
893.06,3165
893.08,3120
893.1,3083
893.12,2985
893.14,2835
893.16,2708
893.18,2618
893.2,2565
893.22,2505
893.24,2385
893.26,2258
893.28,2175
893.3,2175
893.32,2175
893.34,2153
893.36,2115
893.38,2063
893.4,2018
893.42,1995
893.44,1958
893.46,1935
893.48,1853
893.5,1658
893.52,1553
893.54,1478
893.56,1433
893.58,1440
893.6,1395
893.62,1343
893.64,1290
893.66,1260
893.68,1200
893.7,1208
893.72,1238
893.74,1290
893.76,1470
893.78,1763
893.8,2048
893.82,2370
893.84,2685
893.86,2933
893.88,3090
893.9,3143
893.92,3128
893.94,3053
893.96,2888
893.98,2700
894,2588
894.02,2505
894.04,2393
894.06,2288
894.08,2190
894.1,2108
894.12,2115
894.14,2175
894.16,2160
894.18,2055
894.2,1995
894.22,1905
894.24,1785
894.26,1755
894.28,1680
894.3,1635
894.32,1635
894.34,1598
894.36,1553
894.38,1500
894.4,1395
894.42,1275
894.44,1223
894.46,1245
894.48,1253
894.5,1238
894.52,1245
894.54,1268
894.56,1230
894.58,1320
894.6,1575
894.62,1875
894.64,2153
894.66,2445
894.68,2685
894.7,2955
894.72,3083
894.74,3158
894.76,3135
894.78,3075
894.8,3000
894.82,2940
894.84,2835
894.86,2708
894.88,2543
894.9,2445
894.92,2408
894.94,2385
894.96,2310
894.98,2243
895,2220
895.02,2235
895.04,2220
895.06,2183
895.08,2138
895.1,2093
895.12,1973
895.14,1883
895.16,1800
895.18,1725
895.2,1643
895.22,1530
895.24,1448
895.26,1358
895.28,1305
895.3,1253
895.32,1178
895.34,1088
895.36,1043
895.38,1080
895.4,1163
895.42,1215
895.44,1283
895.46,1448
895.48,1725
895.5,2010
895.52,2363
895.54,2663
895.56,2940
895.58,3045
895.6,3068
895.62,3090
895.64,3098
895.66,3068
895.68,2985
895.7,2843
895.72,2715
895.74,2625
895.76,2528
895.78,2468
895.8,2460
895.82,2453
895.84,2423
895.86,2363
895.88,2243
895.9,2138
895.92,2040
895.94,1995
895.96,2033
895.98,2025
896,1943
896.02,1853
896.04,1733
896.06,1643
896.08,1545
896.1,1433
896.12,1365
896.14,1373
896.16,1350
896.18,1343
896.2,1358
896.22,1328
896.24,1290
896.26,1245
896.28,1223
896.3,1260
896.32,1358
896.34,1553
896.36,1845
896.38,2205
896.4,2535
896.42,2805
896.44,3015
896.46,3158
896.48,3210
896.5,3150
896.52,3030
896.54,2918
896.56,2805
896.58,2678
896.6,2565
896.62,2483
896.64,2378
896.66,2295
896.68,2228
896.7,2213
896.72,2235
896.74,2265
896.76,2198
896.78,2025
896.8,1935
896.82,1868
896.84,1800
896.86,1748
896.88,1763
896.9,1725
896.92,1628
896.94,1545
896.96,1463
896.98,1373
897,1253
897.02,1163
897.04,1088
897.06,1028
897.08,1073
897.1,1140
897.12,1245
897.14,1343
897.16,1403
897.18,1455
897.2,1598
897.22,1860
897.24,2250
897.26,2648
897.28,2918
897.3,3143
897.32,3285
897.34,3360
897.36,3263
897.38,3165
897.4,3045
897.42,2933
897.44,2850
897.46,2723
897.48,2640
897.5,2565
897.52,2490
897.54,2430
897.56,2340
897.58,2273
897.6,2243
897.62,2235
897.64,2220
897.66,2205
897.68,2183
897.7,2115
897.72,2003
897.74,1845
897.76,1725
897.78,1643
897.8,1575
897.82,1500
897.84,1403
897.86,1350
897.88,1298
897.9,1238
897.92,1170
897.94,1133
897.96,1118
897.98,1058
898,1058
898.02,1178
898.04,1358
898.06,1605
898.08,1913
898.1,2250
898.12,2573
898.14,2873
898.16,3075
898.18,3203
898.2,3218
898.22,3158
898.24,3135
898.26,3098
898.28,3000
898.3,2948
898.32,2903
898.34,2813
898.36,2708
898.38,2595
898.4,2438
898.42,2280
898.44,2220
898.46,2220
898.48,2273
898.5,2325
898.52,2340
898.54,2228
898.56,2063
898.58,1950
898.6,1875
898.62,1823
898.64,1755
898.66,1605
898.68,1508
898.7,1433
898.72,1335
898.74,1238
898.76,1200
898.78,1215
898.8,1238
898.82,1208
898.84,1193
898.86,1208
898.88,1215
898.9,1178
898.92,1140
898.94,1208
898.96,1358
898.98,1560
899,1905
899.02,2310
899.04,2678
899.06,2940
899.08,3165
899.1,3323
899.12,3375
899.14,3293
899.16,3180
899.18,3068
899.2,2955
899.22,2798
899.24,2715
899.26,2655
899.28,2625
899.3,2520
899.32,2385
899.34,2310
899.36,2288
899.38,2258
899.4,2160
899.42,2078
899.44,2033
899.46,1973
899.48,1920
899.5,1860
899.52,1808
899.54,1800
899.56,1725
899.58,1575
899.6,1440
899.62,1403
899.64,1410
899.66,1365
899.68,1335
899.7,1290
899.72,1245
899.74,1245
899.76,1305
899.78,1305
899.8,1275
899.82,1275
899.84,1320
899.86,1373
899.88,1433
899.9,1523
899.92,1725
899.94,2070
899.96,2513
899.98,2963
900,3270
900.02,3458
900.04,3563
900.06,3563
900.08,3480
900.1,3375
900.12,3255
900.14,3098
900.16,2948
900.18,2783
900.2,2655
900.22,2543
900.24,2475
900.26,2393
900.28,2348
900.3,2295
900.32,2213
900.34,2190
900.36,2205
900.38,2258
900.4,2228
900.42,2130
900.44,1995
900.46,1845
900.48,1718
900.5,1613
900.52,1515
900.54,1425
900.56,1373
900.58,1305
900.6,1215
900.62,1125
900.64,1058
900.66,1028
900.68,1080
900.7,1095
900.72,1095
900.74,1073
900.76,1185
900.78,1388
900.8,1665
900.82,2033
900.84,2430
900.86,2805
900.88,3083
900.9,3300
900.92,3473
900.94,3540
900.96,3518
900.98,3458
901,3398
901.02,3300
901.04,3150
901.06,2978
901.08,2775
901.1,2573
901.12,2393
901.14,2258
901.16,2190
901.18,2220
901.2,2295
901.22,2273
901.24,2198
901.26,2183
901.28,2175
901.3,2153
901.32,2093
901.34,2040
901.36,1905
901.38,1778
901.4,1620
901.42,1463
901.44,1358
901.46,1290
901.48,1185
901.5,1088
901.52,1058
901.54,1065
901.56,1095
901.58,1088
901.6,1013
901.62,975
901.64,1020
901.66,1178
901.68,1485
901.7,1853
901.72,2205
901.74,2610
901.76,2993
901.78,3293
901.8,3480
901.82,3585
901.84,3623
901.86,3593
901.88,3518
901.9,3360
901.92,3218
901.94,3068
901.96,2880
901.98,2723
902,2648
902.02,2588
902.04,2573
902.06,2550
902.08,2483
902.1,2378
902.12,2295
902.14,2190
902.16,2153
902.18,2085
902.2,2055
902.22,1980
902.24,1883
902.26,1800
902.28,1695
902.3,1643
902.32,1560
902.34,1448
902.36,1373
902.38,1298
902.4,1283
902.42,1298
902.44,1253
902.46,1110
902.48,1065
902.5,1103
902.52,1215
902.54,1403
902.56,1658
902.58,1995
902.6,2355
902.62,2678
902.64,3015
902.66,3330
902.68,3555
902.7,3638
902.72,3623
902.74,3570
902.76,3465
902.78,3315
902.8,3135
902.82,2925
902.84,2783
902.86,2708
902.88,2655
902.9,2603
902.92,2490
902.94,2318
902.96,2205
902.98,2190
903,2168
903.02,2130
903.04,2123
903.06,2115
903.08,2085
903.1,1988
903.12,1838
903.14,1665
903.16,1545
903.18,1478
903.2,1418
903.22,1365
903.24,1260
903.26,1133
903.28,1058
903.3,1035
903.32,1005
903.34,1043
903.36,1080
903.38,1095
903.4,1103
903.42,1238
903.44,1485
903.46,1823
903.48,2183
903.5,2505
903.52,2820
903.54,3053
903.56,3188
903.58,3285
903.6,3345
903.62,3248
903.64,3015
903.66,2798
903.68,2595
903.7,2385
903.72,2310
903.74,2318
903.76,2303
903.78,2280
903.8,2265
903.82,2280
903.84,2318
903.86,2303
903.88,2235
903.9,2175
903.92,2138
903.94,2040
903.96,1898
903.98,1778
904,1695
904.02,1620
904.04,1530
904.06,1440
904.08,1358
904.1,1275
904.12,1238
904.14,1230
904.16,1185
904.18,1148
904.2,1073
904.22,1028
904.24,1125
904.26,1343
904.28,1628
904.3,1958
904.32,2280
904.34,2528
904.36,2813
904.38,3083
904.4,3233
904.42,3248
904.44,3225
904.46,3158
904.48,3030
904.5,2895
904.52,2723
904.54,2520
904.56,2415
904.58,2310
904.6,2220
904.62,2183
904.64,2190
904.66,2168
904.68,2085
904.7,1965
904.72,1890
904.74,1860
904.76,1838
904.78,1815
904.8,1815
904.82,1748
904.84,1658
904.86,1523
904.88,1388
904.9,1283
904.92,1163
904.94,1073
904.96,1005
904.98,960
905,960
905.02,1005
905.04,1005
905.06,968
905.08,953
905.1,1035
905.12,1230
905.14,1530
905.16,1935
905.18,2312
905.2,2588
905.22,2816
905.24,2978
905.26,3050
905.28,3086
905.3,3068
905.32,3044
905.34,3020
905.36,2960
905.38,2816
905.4,2654
905.42,2528
905.44,2420
905.46,2384
905.48,2342
905.5,2246
905.52,2198
905.54,2192
905.56,2192
905.58,2144
905.6,2030
905.62,1886
905.64,1808
905.66,1790
905.68,1784
905.7,1760
905.72,1748
905.74,1706
905.76,1604
905.78,1496
905.8,1412
905.82,1394
905.84,1394
905.86,1340
905.88,1292
905.9,1274
905.92,1268
905.94,1232
905.96,1208
905.98,1244
906,1370
906.02,1574
906.04,1808
906.06,2054
906.08,2348
906.1,2636
906.12,2846
906.14,2978
906.16,3050
906.18,3044
906.2,2996
906.22,2942
906.24,2870
906.26,2780
906.28,2684
906.3,2552
906.32,2414
906.34,2336
906.36,2288
906.38,2258
906.4,2246
906.42,2270
906.44,2258
906.46,2192
906.48,2102
906.5,2030
906.52,1940
906.54,1868
906.56,1844
906.58,1748
906.6,1640
906.62,1574
906.64,1514
906.66,1484
906.68,1454
906.7,1364
906.72,1286
906.74,1208
906.76,1130
906.78,1082
906.8,1172
906.82,1214
906.84,1286
906.86,1442
906.88,1646
906.9,1832
906.92,2054
906.94,2330
906.96,2588
906.98,2822
907,2918
907.02,2894
907.04,2852
907.06,2798
907.08,2720
907.1,2654
907.12,2636
907.14,2582
907.16,2522
907.18,2438
907.2,2330
907.22,2288
907.24,2234
907.26,2168
907.28,2060
907.3,1988
907.32,1916
907.34,1850
907.36,1808
907.38,1760
907.4,1640
907.42,1598
907.44,1586
907.46,1538
907.48,1484
907.5,1448
907.52,1460
907.54,1454
907.56,1436
907.58,1448
907.6,1430
907.62,1394
907.64,1382
907.66,1334
907.68,1286
907.7,1310
907.72,1400
907.74,1556
907.76,1808
907.78,2086
907.8,2309
907.82,2489
907.84,2675
907.86,2817
907.88,2846
907.9,2793
907.92,2774
907.94,2722
907.96,2646
907.98,2556
908,2499
908.02,2442
908.04,2375
908.06,2352
908.08,2352
908.1,2328
908.12,2285
908.14,2247
908.16,2238
908.18,2181
908.2,2057
908.22,1967
908.24,1881
908.26,1791
908.28,1748
908.3,1706
908.32,1677
908.34,1687
908.36,1672
908.38,1639
908.4,1568
908.42,1520
908.44,1473
908.46,1397
908.48,1359
908.5,1368
908.52,1383
908.54,1387
908.56,1330
908.58,1273
908.6,1269
908.62,1387
908.64,1530
908.66,1653
908.68,1820
908.7,2043
908.72,2223
908.74,2409
908.76,2584
908.78,2736
908.8,2874
908.82,2926
908.84,2893
908.86,2803
908.88,2698
908.9,2608
908.92,2504
908.94,2456
908.96,2428
908.98,2361
909,2328
909.02,2328
909.04,2328
909.06,2285
909.08,2238
909.1,2166
909.12,2105
909.14,2086
909.16,2024
909.18,1934
909.2,1853
909.22,1786
909.24,1725
909.26,1672
909.28,1601
909.3,1587
909.32,1563
909.34,1530
909.36,1525
909.38,1554
909.4,1544
909.42,1525
909.44,1516
909.46,1520
909.48,1525
909.5,1492
909.52,1473
909.54,1516
909.56,1568
909.58,1691
909.6,1900
909.62,2147
909.64,2347
909.66,2508
909.68,2646
909.7,2736
909.72,2789
909.74,2784
909.76,2713
909.78,2641
909.8,2584
909.82,2499
909.84,2385
909.86,2337
909.88,2304
909.9,2285
909.92,2247
909.94,2190
909.96,2138
909.98,2109
910,2086
910.02,2024
910.04,1962
910.06,1910
910.08,1910
910.1,1943
910.12,1938
910.14,1910
910.16,1858
910.18,1791
910.2,1739
910.22,1687
910.24,1611
910.26,1549
910.28,1530
910.3,1506
910.32,1463
910.34,1449
910.36,1425
910.38,1392
910.4,1411
910.42,1478
910.44,1615
910.46,1796
910.48,2052
910.5,2337
910.52,2556
910.54,2722
910.56,2817
910.58,2850
910.6,2855
910.62,2798
910.64,2736
910.66,2675
910.68,2542
910.7,2423
910.72,2337
910.74,2266
910.76,2219
910.78,2162
910.8,2147
910.82,2166
910.84,2147
910.86,2128
910.88,2105
910.9,2067
910.92,2029
910.94,1981
910.96,1938
910.98,1910
911,1877
911.02,1805
911.04,1720
911.06,1634
911.08,1577
911.1,1501
911.12,1449
911.14,1411
911.16,1383
911.18,1397
911.2,1406
911.22,1425
911.24,1416
911.26,1392
911.28,1435
911.3,1554
911.32,1729
911.34,1915
911.36,2128
911.38,2361
911.4,2546
911.42,2713
911.44,2841
911.46,2860
911.48,2850
911.5,2798
911.52,2703
911.54,2618
911.56,2551
911.58,2508
911.6,2442
911.62,2361
911.64,2318
911.66,2280
911.68,2261
911.7,2247
911.72,2247
911.74,2238
911.76,2223
911.78,2157
911.8,2076
911.82,2014
911.84,1915
911.86,1843
911.88,1763
911.9,1634
911.92,1549
911.94,1544
911.96,1568
911.98,1544
912,1501
912.02,1473
912.04,1425
912.06,1335
912.08,1297
912.1,1311
912.12,1368
912.14,1425
912.16,1468
912.18,1563
912.2,1696
912.22,1900
912.24,2147
912.26,2356
912.28,2523
912.3,2656
912.32,2774
912.34,2831
912.36,2808
912.38,2760
912.4,2679
912.42,2613
912.44,2561
912.46,2499
912.48,2418
912.5,2352
912.52,2333
912.54,2352
912.56,2356
912.58,2333
912.6,2290
912.62,2238
912.64,2190
912.66,2181
912.68,2166
912.7,2147
912.72,2090
912.74,2014
912.76,1943
912.78,1881
912.8,1810
912.82,1744
912.84,1715
912.86,1658
912.88,1558
912.9,1516
912.92,1539
912.94,1563
912.96,1549
912.98,1539
913,1573
913.02,1663
913.04,1815
913.06,2019
913.08,2204
913.1,2394
913.12,2589
913.14,2732
913.16,2803
913.18,2831
913.2,2822
913.22,2784
913.24,2698
913.26,2584
913.28,2466
913.3,2399
913.32,2404
913.34,2418
913.36,2409
913.38,2375
913.4,2323
913.42,2285
913.44,2276
913.46,2242
913.48,2200
913.5,2152
913.52,2128
913.54,2133
913.56,2100
913.58,2033
913.6,1957
913.62,1900
913.64,1829
913.66,1767
913.68,1691
913.7,1620
913.72,1587
913.74,1582
913.76,1582
913.78,1554
913.8,1544
913.82,1611
913.84,1739
913.86,1915
913.88,2147
913.9,2390
913.92,2589
913.94,2808
913.96,2955
913.98,3021
914,2974
914.02,2907
914.04,2831
914.06,2760
914.08,2651
914.1,2584
914.12,2513
914.14,2442
914.16,2380
914.18,2318
914.2,2280
914.22,2247
914.24,2190
914.26,2119
914.28,2119
914.3,2147
914.32,2119
914.34,2005
914.36,1924
914.38,1900
914.4,1858
914.42,1805
914.44,1739
914.46,1653
914.48,1563
914.5,1497
914.52,1449
914.54,1468
914.56,1492
914.58,1459
914.6,1435
914.62,1468
914.64,1520
914.66,1611
914.68,1753
914.7,1957
914.72,2190
914.74,2451
914.76,2656
914.78,2784
914.8,2836
914.82,2822
914.84,2755
914.86,2713
914.88,2670
914.9,2632
914.92,2584
914.94,2485
914.96,2371
914.98,2323
915,2299
915.02,2247
915.04,2185
915.06,2143
915.08,2157
915.1,2133
915.12,2124
915.14,2090
915.16,2019
915.18,1957
915.2,1872
915.22,1767
915.24,1706
915.26,1653
915.28,1601
915.3,1558
915.32,1539
915.34,1511
915.36,1459
915.38,1411
915.4,1373
915.42,1368
915.44,1340
915.46,1335
915.48,1335
915.5,1326
915.52,1383
